Time,EMG1,EMG2,EMG3,EMG4,EMG5,EMG6,EMG7,EMG8
10:58:34:401078,-4,-3,-1,-1,-1,-1,0,-2
10:58:34:401844,-13,-3,1,-1,-3,1,0,-1
10:58:34:408251,2,-3,-5,-26,1,-3,-12,-8
10:58:34:415629,2,-3,-5,-26,1,-3,-12,-8
10:58:34:423186,-17,-7,-2,1,6,0,-2,-5
10:58:34:430527,-7,1,1,8,-10,-6,-13,2
10:58:34:438665,-7,1,1,8,-10,-6,-13,2
10:58:34:439288,8,4,0,2,-4,1,-1,-3
10:58:34:453307,18,-2,3,12,3,2,9,2
10:58:34:461415,18,-2,3,12,3,2,9,2
10:58:34:461626,5,-9,-8,-17,17,4,6,-1
10:58:34:468051,1,-2,-5,-13,-3,2,-5,-1
10:58:34:475761,1,-2,-5,-13,-3,2,-5,-1
10:58:34:483086,7,3,2,6,-6,-5,1,1
10:58:34:490470,6,-2,-3,-26,-6,-3,5,7
10:58:34:497732,6,-2,-3,-26,-6,-3,5,7
10:58:34:505055,8,3,-2,-5,-3,-2,2,7
10:58:34:512550,7,0,-1,9,-4,-3,0,-5
10:58:34:521092,7,0,-1,9,-4,-3,0,-5
10:58:34:521826,0,3,4,3,-1,5,6,2
10:58:34:536091,-19,-5,-1,18,5,4,-5,1
10:58:34:536947,-19,-5,-1,18,5,4,-5,1
10:58:34:543142,-1,-3,-1,14,9,-4,-23,-5
10:58:34:550223,-18,0,-4,-15,-5,-5,-11,-6
10:58:34:557693,-18,0,-4,-15,-5,-5,-11,-6
10:58:34:565185,-19,-5,1,0,-7,-3,6,12
10:58:34:572755,-2,5,0,11,1,8,12,3
10:58:34:581560,-2,5,0,11,1,8,12,3
10:58:34:581777,13,3,-4,-9,-9,-4,0,-8
10:58:34:596025,-8,0,4,-2,-6,-6,0,0
10:58:34:596819,-8,0,4,-2,-6,-6,0,0
10:58:34:602998,0,-1,-2,0,1,4,1,-1
10:58:34:610509,-4,-8,1,6,4,-2,-3,-1
10:58:34:618302,-4,-8,1,6,4,-2,-3,-1
10:58:34:625760,-9,-4,-10,-17,-5,-9,-13,-8
10:58:34:633209,-1,-1,4,29,3,3,2,-9
10:58:34:641486,-1,-1,4,29,3,3,2,-9
10:58:34:641729,-3,1,6,9,-7,-4,13,-1
10:58:34:656533,9,-1,5,22,-2,-6,-10,-8
10:58:34:656763,9,-1,5,22,-2,-6,-10,-8
10:58:34:662679,7,4,5,18,3,1,-10,-3
10:58:34:670656,7,-3,-7,-22,0,1,8,0
10:58:34:678266,7,-3,-7,-22,0,1,8,0
10:58:34:685403,-8,-2,-1,-7,-1,0,6,-4
10:58:34:693972,3,-2,-1,-10,-4,-6,-7,-4
10:58:34:694190,3,-2,-1,-10,-4,-6,-7,-4
10:58:34:700755,-3,-4,-6,-18,-4,0,-2,10
10:58:34:716434,5,6,-2,-9,0,0,6,15
10:58:34:716653,5,6,-2,-9,0,0,6,15
10:58:34:723042,-14,-9,-14,-33,-3,0,-5,-4
10:58:34:730653,17,-2,0,1,4,3,-1,-3
10:58:34:738331,17,-2,0,1,4,3,-1,-3
10:58:34:745645,12,-5,2,21,-1,-3,-5,11
10:58:34:753932,0,0,-2,2,-1,3,9,4
10:58:34:754153,0,0,-2,2,-1,3,9,4
10:58:34:760379,12,5,0,5,0,-5,1,-14
10:58:34:775970,1,0,1,-8,0,-1,-8,-10
10:58:34:777042,1,0,1,-8,0,-1,-8,-10
10:58:34:782632,9,1,-2,-1,-1,0,-7,-11
10:58:34:790277,-8,-1,2,4,-8,-6,0,-4
10:58:34:797711,-8,-1,2,4,-8,-6,0,-4
10:58:34:805176,10,7,0,5,11,1,-4,-9
10:58:34:813453,-17,1,-10,-18,-4,-3,10,-1
10:58:34:814566,-17,1,-10,-18,-4,-3,10,-1
10:58:34:820305,-7,-3,-4,-3,1,1,3,14
10:58:34:836021,-3,1,1,-1,-4,-4,3,-1
10:58:34:836868,-3,1,1,-1,-4,-4,3,-1
10:58:34:842822,-12,-4,1,18,-13,-6,-1,-1
10:58:34:850444,10,-4,2,6,4,2,-4,2
10:58:34:857812,10,-4,2,6,4,2,-4,2
10:58:34:865335,-1,-2,7,12,5,4,-3,-7
10:58:34:873404,-19,1,-1,-7,1,0,-2,3
10:58:34:874275,-19,1,-1,-7,1,0,-2,3
10:58:34:880389,-10,3,3,-1,1,-3,7,3
10:58:34:895890,9,0,-2,-5,-6,-4,-2,2
10:58:34:896656,9,0,-2,-5,-6,-4,-2,2
10:58:34:902921,-10,-1,5,0,6,5,10,8
10:58:34:910313,-4,-5,-2,6,2,-1,-4,-4
10:58:34:917848,-4,-5,-2,6,2,-1,-4,-4
10:58:34:925309,-12,-10,-7,-24,-1,-1,-14,-9
10:58:34:933386,1,-2,-2,14,-13,-6,6,-4
10:58:34:934210,1,-2,-2,14,-13,-6,6,-4
10:58:34:940215,-12,4,1,4,7,4,0,-6
10:58:34:956021,-31,-3,-7,-15,-10,-2,-11,-15
10:58:34:956711,-31,-3,-7,-15,-10,-2,-11,-15
10:58:34:962690,9,-2,-3,-13,0,3,15,9
10:58:34:970394,4,0,-17,1,5,0,-7,-2
10:58:34:985933,4,0,-17,1,5,0,-7,-2
10:58:34:986774,5,5,12,5,-11,-6,2,4
10:58:34:993366,30,-3,-5,-3,2,6,-4,-3
10:58:34:994125,30,-3,-5,-3,2,6,-4,-3
10:58:35:131,1,-2,-7,-14,-3,-1,-9,-11
10:58:35:15895,-16,0,6,-19,2,2,-4,-7
10:58:35:16760,-16,0,6,-19,2,2,-4,-7
10:58:35:22760,22,3,-1,2,-11,-1,19,3
10:58:35:30518,-43,-15,-1,4,6,-3,-9,-11
10:58:35:37842,-43,-15,-1,4,6,-3,-9,-11
10:58:35:45256,-32,-7,1,-10,-7,-5,-9,-3
10:58:35:53448,9,3,6,10,17,3,-3,7
10:58:35:54252,9,3,6,10,17,3,-3,7
10:58:35:60280,16,2,-10,1,4,-5,4,-1
10:58:35:75819,1,0,9,5,-7,-2,7,4
10:58:35:76700,1,0,9,5,-7,-2,7,4
10:58:35:82733,10,4,-5,-10,0,2,-6,-2
10:58:35:90237,0,5,22,6,0,-3,11,4
10:58:35:97686,0,5,22,6,0,-3,11,4
10:58:35:105685,-41,-10,-11,2,-7,-6,-9,17
10:58:35:113770,9,1,-24,6,-3,-1,-12,12
10:58:35:114294,9,1,-24,6,-3,-1,-12,12
10:58:35:120324,10,2,12,18,13,3,-10,-2
10:58:35:135918,-1,-2,-2,0,-2,-3,-2,3
10:58:35:136692,-1,-2,-2,0,-2,-3,-2,3
10:58:35:142826,12,3,-3,9,-2,-1,1,-6
10:58:35:150293,-5,-6,7,4,-1,-2,1,-4
10:58:35:157777,-5,-6,7,4,-1,-2,1,-4
10:58:35:165231,-21,-6,-11,-1,-10,0,2,-10
10:58:35:173426,8,7,-7,-14,8,3,0,-2
10:58:35:174329,8,7,-7,-14,8,3,0,-2
10:58:35:180373,25,4,4,6,-4,-4,-1,2
10:58:35:195803,-10,1,18,4,2,1,3,-5
10:58:35:196703,-10,1,18,4,2,1,3,-5
10:58:35:202815,21,-2,-4,-19,-3,1,4,-6
10:58:35:210359,0,3,-14,-2,0,-1,-13,-2
10:58:35:217654,0,3,-14,-2,0,-1,-13,-2
10:58:35:225248,2,0,9,4,-3,-2,-6,2
10:58:35:233513,-23,-6,-2,-6,-14,-4,6,-3
10:58:35:234322,-23,-6,-2,-6,-14,-4,6,-3
10:58:35:240367,-4,0,14,11,15,6,-3,-8
10:58:35:256046,10,1,-5,-2,-6,-6,-2,-1
10:58:35:256873,10,1,-5,-2,-6,-6,-2,-1
10:58:35:262849,-10,-6,-8,3,-6,-5,-18,-8
10:58:35:270338,4,-2,-2,12,3,0,5,0
10:58:35:277882,4,-2,-2,12,3,0,5,0
10:58:35:294212,-24,-8,36,-1,-1,-1,-11,-5
10:58:35:295030,9,1,-6,8,8,7,6,1
10:58:35:295641,9,1,-6,8,8,7,6,1
10:58:35:300350,5,-8,-26,-25,-12,-10,-7,0
10:58:35:315858,-5,-3,-9,-6,8,5,-6,-2
10:58:35:316900,-5,-3,-9,-6,8,5,-6,-2
10:58:35:322847,-3,-2,-3,-6,0,-3,7,-1
10:58:35:330317,6,-3,-10,-50,1,-1,12,5
10:58:35:337889,6,-3,-10,-50,1,-1,12,5
10:58:35:345334,0,2,-1,2,-4,0,-1,-4
10:58:35:353398,-2,5,9,27,-3,-3,-6,-9
10:58:35:354443,-2,5,9,27,-3,-3,-6,-9
10:58:35:360414,-2,-1,-8,5,-1,-3,6,6
10:58:35:376066,-3,-3,5,7,-13,-6,0,-1
10:58:35:376762,-3,-3,5,7,-13,-6,0,-1
10:58:35:382741,-13,-2,-3,18,9,5,-5,-5
10:58:35:390258,15,5,4,-10,-3,-4,1,-5
10:58:35:397717,15,5,4,-10,-3,-4,1,-5
10:58:35:405575,9,-2,-9,-25,-12,-4,4,-1
10:58:35:413378,6,-3,-1,6,8,1,-1,5
10:58:35:414221,6,-3,-1,6,8,1,-1,5
10:58:35:427641,23,6,0,10,-7,-2,-7,4
10:58:35:436039,7,-9,0,-5,-7,-3,-5,-7
10:58:35:436867,7,-9,0,-5,-7,-3,-5,-7
10:58:35:442850,-2,-1,-2,-1,11,2,4,4
10:58:35:458521,-25,-4,-7,-25,-12,-4,-6,6
10:58:35:459363,-25,-4,-7,-25,-12,-4,-6,6
10:58:35:465346,11,7,-2,-4,1,4,-18,-1
10:58:35:473378,4,-3,1,22,13,8,8,1
10:58:35:474087,4,-3,1,22,13,8,8,1
10:58:35:487672,-7,-1,4,18,-8,-5,7,15
10:58:35:495927,15,-1,-3,-19,-12,-9,-5,3
10:58:35:496715,15,-1,-3,-19,-12,-9,-5,3
10:58:35:502791,0,0,6,20,17,3,6,-5
10:58:35:518643,-12,-5,-1,-1,1,3,4,-5
10:58:35:519360,-12,-5,-1,-1,1,3,4,-5
10:58:35:525347,8,0,-1,-11,-12,-1,3,-9
10:58:35:533510,5,4,3,7,0,-3,-9,4
10:58:35:534231,5,4,3,7,0,-3,-9,4
10:58:35:547824,-15,-2,2,3,-6,-1,4,-8
10:58:35:556045,-3,1,-2,0,2,-5,-6,-5
10:58:35:556866,-3,1,-2,0,2,-5,-6,-5
10:58:35:562847,-8,-10,-7,-14,-7,-3,3,-3
10:58:35:578526,-6,2,3,8,8,-1,-7,-6
10:58:35:579296,-6,2,3,8,8,-1,-7,-6
10:58:35:585301,-1,2,0,10,1,-3,6,2
10:58:35:593880,-14,1,-1,-13,-11,-4,-16,-7
10:58:35:594258,-14,1,-1,-13,-11,-4,-16,-7
10:58:35:607939,-9,-5,-7,-15,13,5,-4,2
10:58:35:616043,3,-4,-4,-6,-4,-3,4,11
10:58:35:616805,3,-4,-4,-6,-4,-3,4,11
10:58:35:622827,11,3,-4,5,0,-2,-2,5
10:58:35:638520,5,-2,2,11,-5,2,-2,-8
10:58:35:639336,5,-2,2,11,-5,2,-2,-8
10:58:35:645306,0,-1,-5,-7,0,0,-1,-4
10:58:35:653460,-14,-9,-11,-17,-6,-1,-6,-5
10:58:35:654365,-14,-9,-11,-17,-6,-1,-6,-5
10:58:35:667829,0,3,-3,-8,-4,0,6,0
10:58:35:675892,1,1,2,13,1,-1,9,5
10:58:35:676701,1,1,2,13,1,-1,9,5
10:58:35:683042,-20,-5,-2,-12,-5,-1,-1,-4
10:58:35:698414,-3,-2,2,6,8,4,9,5
10:58:35:699312,-3,-2,2,6,8,4,9,5
10:58:35:705282,14,1,1,8,-4,-4,0,16
10:58:35:713478,25,8,0,8,-6,2,-1,-8
10:58:35:714328,25,8,0,8,-6,2,-1,-8
10:58:35:727844,-1,-1,-2,4,11,0,-11,-5
10:58:35:735982,12,2,-1,-5,-5,-5,-5,-1
10:58:35:736807,12,2,-1,-5,-5,-5,-5,-1
10:58:35:742793,4,-7,-2,2,-7,-3,-5,-6
10:58:35:758380,-13,-3,-1,-1,3,1,2,1
10:58:35:759190,-13,-3,-1,-1,3,1,2,1
10:58:35:765263,-10,2,-2,-11,3,-2,-1,2
10:58:35:773375,1,-1,-3,-11,-9,-6,3,7
10:58:35:774235,1,-1,-3,-11,-9,-6,3,7
10:58:35:787725,8,0,-1,15,12,3,-1,-2
10:58:35:795942,8,0,-1,15,12,3,-1,-2
10:58:35:796685,-9,-6,1,8,2,1,-1,-2
10:58:35:802767,2,3,-10,-40,-9,-1,-5,-10
10:58:35:818355,2,3,-10,-40,-9,-1,-5,-10
10:58:35:819120,-11,-2,-11,-22,-1,0,13,-4
10:58:35:825142,-1,-8,2,7,3,3,8,6
10:58:35:840854,-1,-8,2,7,3,3,8,6
10:58:35:841642,-4,-6,1,9,0,-4,-1,3
10:58:35:847618,-6,4,3,-5,-6,-4,-1,0
10:58:35:856438,-6,4,3,-5,-6,-4,-1,0
10:58:35:856534,6,-3,2,1,0,1,2,-6
10:58:35:862638,2,-2,-5,-24,-6,-3,5,-4
10:58:35:878338,2,-2,-5,-24,-6,-3,5,-4
10:58:35:879088,-1,6,3,10,6,3,-9,-5
10:58:35:885276,-4,2,5,18,-10,-7,-14,-7
10:58:35:901047,-4,2,5,18,-10,-7,-14,-7
10:58:35:901627,-22,-2,-9,-19,8,0,3,1
10:58:35:908061,-22,-8,-2,-2,-9,-3,4,8
10:58:35:915891,-22,-8,-2,-2,-9,-3,4,8
10:58:35:916858,5,0,4,7,-3,2,-4,2
10:58:35:922610,11,0,2,8,5,-1,-3,-12
10:58:35:938455,11,0,2,8,5,-1,-3,-12
10:58:35:939193,-21,-5,-4,-11,2,4,4,5
10:58:35:945534,12,5,-2,-9,-2,4,9,6
10:58:35:960960,12,5,-2,-9,-2,4,9,6
10:58:35:961747,6,2,-2,5,-6,-9,-17,-12
10:58:35:967691,-20,-4,-2,20,7,0,-7,-7
10:58:35:975939,-20,-4,-2,20,7,0,-7,-7
10:58:35:976775,-12,0,-2,-3,0,-2,5,5
10:58:35:982755,-1,0,-4,-9,-14,-8,-1,5
10:58:35:998378,-1,0,-4,-9,-14,-8,-1,5
10:58:35:999256,13,0,2,0,-5,-3,-7,-6
10:58:36:5248,-1,2,-2,-12,7,1,-2,-3
10:58:36:20972,-1,2,-2,-12,7,1,-2,-3
10:58:36:21633,7,-2,-1,-3,-7,-3,-4,-3
10:58:36:27654,8,-4,6,8,0,1,3,11
10:58:36:36002,8,-4,6,8,0,1,3,11
10:58:36:36866,1,1,1,7,-3,-4,-4,0
10:58:36:42813,-2,-1,0,-8,-11,-7,-12,-8
10:58:36:58423,-2,-1,0,-8,-11,-7,-12,-8
10:58:36:59305,-17,-3,-5,-14,22,12,9,-1
10:58:36:65323,11,4,-3,7,-5,-3,1,-4
10:58:36:72898,11,4,-3,7,-5,-3,1,-4
10:58:36:80342,0,1,0,5,-17,-7,-2,-1
10:58:36:87704,-13,-6,-1,2,4,2,6,-6
10:58:36:96245,-13,-6,-1,2,4,2,6,-6
10:58:36:96833,13,4,2,11,8,2,5,-6
10:58:36:103116,-10,-7,3,16,-3,-1,-6,5
10:58:36:118676,-10,-7,3,16,-3,-1,-6,5
10:58:36:119466,8,-7,2,-7,-9,-2,-3,-10
10:58:36:125316,16,3,-3,-27,18,9,-3,-11
10:58:36:132925,16,3,-3,-27,18,9,-3,-11
10:58:36:140363,-12,1,-4,-19,-4,-3,1,-1
10:58:36:147818,-10,-3,-4,-4,-6,-5,-4,-1
10:58:36:155989,-10,-3,-4,-4,-6,-5,-4,-1
10:58:36:156633,20,4,2,9,10,0,-16,3
10:58:36:162783,-12,1,-1,7,-8,-4,3,-2
10:58:36:178431,-12,1,-1,7,-8,-4,3,-2
10:58:36:179267,6,-1,-5,-15,-6,6,10,17
10:58:36:185288,11,-4,-6,-21,1,0,-4,-3
10:58:36:192741,11,-4,-6,-21,1,0,-4,-3
10:58:36:200277,-2,-1,5,21,-6,-3,1,-4
10:58:36:207701,14,2,-5,-22,-1,1,-1,-1
10:58:36:215876,14,2,-5,-22,-1,1,-1,-1
10:58:36:217040,-2,-4,-8,-19,2,-2,1,4
10:58:36:223076,-5,0,3,21,-9,0,27,-1
10:58:36:238542,-5,0,3,21,-9,0,27,-1
10:58:36:239301,-13,-1,2,13,6,0,-5,-6
10:58:36:245344,-3,-2,2,7,-3,-3,-2,-2
10:58:36:253140,-3,-2,2,7,-3,-3,-2,-2
10:58:36:260151,4,2,0,0,-10,-4,4,11
10:58:36:267995,-25,-3,-1,-4,2,-3,-8,-2
10:58:36:276010,-25,-3,-1,-4,2,-3,-8,-2
10:58:36:276826,-14,-7,0,4,2,-2,-7,-7
10:58:36:282812,0,2,7,35,2,3,4,1
10:58:36:298427,0,2,7,35,2,3,4,1
10:58:36:299284,0,-2,2,2,-2,0,3,-5
10:58:36:305307,3,1,0,-1,-4,-6,16,8
10:58:36:312955,3,1,0,-1,-4,-6,16,8
10:58:36:328457,-10,-7,-5,-4,-1,2,-1,6
10:58:36:329293,5,2,-1,2,-8,-5,-20,-1
10:58:36:336072,5,2,-1,2,-8,-5,-20,-1
10:58:36:336870,-3,-6,-4,11,3,-2,-1,-2
10:58:36:342845,11,2,9,35,9,6,-3,-3
10:58:36:358928,11,2,9,35,9,6,-3,-3
10:58:36:365929,13,6,5,22,-2,-2,-7,-7
10:58:36:366717,-24,-8,-3,-14,-6,-1,-3,1
10:58:36:381316,-24,-8,-3,-14,-6,-1,-3,1
10:58:36:381576,3,-2,-4,-12,-6,-6,-7,-4
10:58:36:387664,12,4,-3,-10,9,7,6,0
10:58:36:396042,12,4,-3,-10,9,7,6,0
10:58:36:396829,-11,-7,-3,-11,-3,-4,-3,6
10:58:36:410229,-13,-1,-1,-3,3,5,1,0
10:58:36:418470,-13,-1,-1,-3,3,5,1,0
10:58:36:419271,15,9,0,-4,11,6,5,2
10:58:36:425379,-2,-4,-5,-12,-14,-9,-6,-11
10:58:36:441322,-2,-4,-5,-12,-14,-9,-6,-11
10:58:36:441615,-9,0,-1,-1,5,3,-3,-6
10:58:36:447703,-9,-11,-8,-5,0,0,-4,2
10:58:36:455938,-9,-11,-8,-5,0,0,-4,2
10:58:36:456840,7,2,1,2,-16,-5,2,2
10:58:36:470348,4,0,0,-2,-4,-3,-3,1
10:58:36:478518,4,0,0,-2,-4,-3,-3,1
10:58:36:479271,-18,-2,-2,10,3,2,3,-7
10:58:36:485354,0,0,4,15,-1,-3,0,2
10:58:36:501073,0,0,4,15,-1,-3,0,2
10:58:36:501785,8,-3,0,-2,2,-1,2,-5
10:58:36:507803,8,0,1,22,-12,-7,-1,7
10:58:36:523619,8,0,1,22,-12,-7,-1,7
10:58:36:524360,-5,1,-3,-4,17,8,3,7
10:58:36:530242,4,0,-4,-17,-5,-3,-2,1
10:58:36:538437,4,0,-4,-17,-5,-3,-2,1
10:58:36:539317,3,-2,-3,-9,-21,-10,-8,5
10:58:36:545246,9,10,1,-1,6,1,-1,2
10:58:36:552762,9,10,1,-1,6,1,-1,2
10:58:36:560238,-34,-9,-5,-32,-5,-5,2,2
10:58:36:567687,-4,-3,0,-9,1,7,7,-3
10:58:36:575919,-4,-3,0,-9,1,7,7,-3
10:58:36:576733,11,2,-3,-7,-6,-3,-7,-6
10:58:36:590284,-4,-4,3,6,-9,-7,-3,-3
10:58:36:598422,-4,-4,3,6,-9,-7,-3,-3
10:58:36:599146,9,0,-3,10,7,2,4,2
10:58:36:605330,10,1,-5,-9,12,8,4,-2
10:58:36:612878,10,1,-5,-9,12,8,4,-2
10:58:36:620275,-6,-4,2,2,-15,-5,8,9
10:58:36:627672,-1,0,-1,-4,-1,0,-9,-12
10:58:36:636020,-1,0,-1,-4,-1,0,-9,-12
10:58:36:636713,16,3,1,17,7,3,6,3
10:58:36:650280,-6,-4,-4,14,-8,-8,-2,3
10:58:36:658437,-6,-4,-4,14,-8,-8,-2,3
10:58:36:659286,9,6,6,31,16,5,-4,-6
10:58:36:665274,-6,-4,0,-8,-3,-1,-4,-2
10:58:36:672744,-6,-4,0,-8,-3,-1,-4,-2
10:58:36:680235,-13,3,-6,-14,-9,-6,-6,-4
10:58:36:687593,-24,-4,5,5,6,8,3,3
10:58:36:695940,-24,-4,5,5,6,8,3,3
10:58:36:696745,4,2,2,-6,2,2,0,-3
10:58:36:710452,1,-4,-4,-8,1,-4,-1,-4
10:58:36:726887,1,-4,-4,-8,1,-4,-1,-4
10:58:36:727385,16,4,1,-1,-6,-8,-15,-8
10:58:36:728143,-6,1,-4,-13,0,-2,-9,-3
10:58:36:732762,-6,1,-4,-13,0,-2,-9,-3
10:58:36:740146,-6,-14,-1,-5,0,-4,-3,-6
10:58:36:747550,6,-2,-14,-40,-4,-1,2,-6
10:58:36:755939,6,-2,-14,-40,-4,-1,2,-6
10:58:36:756770,-4,2,4,-12,-8,-3,-2,-9
10:58:36:770194,1,1,9,38,21,4,-6,-5
10:58:36:778504,1,1,9,38,21,4,-6,-5
10:58:36:779313,12,3,-3,-18,-12,-3,1,-5
10:58:36:785290,9,-1,-10,-49,-9,2,-3,-4
10:58:36:792889,9,-1,-10,-49,-9,2,-3,-4
10:58:36:800158,-4,-3,2,12,9,0,-5,4
10:58:36:807801,-23,-1,-2,4,-8,-9,-6,0
10:58:36:815933,-23,-1,-2,4,-8,-9,-6,0
10:58:36:817067,2,-4,-8,-6,-5,0,0,-1
10:58:36:830332,4,0,2,10,3,-3,1,-5
10:58:36:839135,4,0,2,10,3,-3,1,-5
10:58:36:839911,7,1,-1,2,1,4,10,7
10:58:36:845294,6,-1,1,3,-3,1,7,2
10:58:36:852874,6,-1,1,3,-3,1,7,2
10:58:36:860319,-3,-5,-8,-9,-4,-2,-4,-3
10:58:36:867600,3,-3,-7,-5,2,4,-3,-4
10:58:36:875894,3,-3,-7,-5,2,4,-3,-4
10:58:36:876840,-2,-2,-3,12,14,1,4,-1
10:58:36:890175,-14,0,-1,4,-6,-7,-6,-4
10:58:36:898464,-14,0,-1,4,-6,-7,-6,-4
10:58:36:899173,-7,-5,-4,-19,-13,-3,-3,-14
10:58:36:905305,23,2,2,1,2,5,6,6
10:58:36:913258,23,2,2,1,2,5,6,6
10:58:36:920447,-24,-1,2,4,0,0,-2,5
10:58:36:927626,-6,-3,-8,-33,-4,-7,-3,-5
10:58:36:935950,-6,-3,-8,-33,-4,-7,-3,-5
10:58:36:936733,2,-1,-6,-7,5,1,-5,-1
10:58:36:950257,-14,-10,-1,8,-2,-1,2,-7
10:58:36:958424,-14,-10,-1,8,-2,-1,2,-7
10:58:36:959267,-8,0,3,8,-7,-5,-4,-1
10:58:36:965182,9,1,-2,-7,-3,0,4,8
10:58:36:972750,9,1,-2,-7,-3,0,4,8
10:58:36:980485,5,-2,5,16,7,2,5,4
10:58:36:987786,-1,1,3,0,-3,-1,-5,-5
10:58:36:995923,-1,1,3,0,-3,-1,-5,-5
10:58:36:996730,3,1,-11,-21,0,0,1,0
10:58:37:10277,4,1,2,27,13,5,8,4
10:58:37:18445,4,1,2,27,13,5,8,4
10:58:37:19277,-29,-1,1,-5,-4,-4,-14,-13
10:58:37:33772,-1,-13,-2,-4,-14,-7,-5,-5
10:58:37:34028,-1,-13,-2,-4,-14,-7,-5,-5
10:58:37:40508,7,1,4,6,0,-2,-1,0
10:58:37:47824,2,2,-2,0,8,4,3,6
10:58:37:55865,2,2,-2,0,8,4,3,6
10:58:37:56976,10,2,2,4,-11,-3,-5,-2
10:58:37:70185,-6,3,0,6,8,1,0,-1
10:58:37:78442,-6,3,0,6,8,1,0,-1
10:58:37:79269,14,2,-2,-3,-4,-3,7,-6
10:58:37:85288,-10,-9,-2,-7,-8,-6,-12,-1
10:58:37:93138,-10,-9,-2,-7,-8,-6,-12,-1
10:58:37:100218,0,-3,2,6,5,3,1,4
10:58:37:107863,4,2,-2,4,-21,-11,-4,-3
10:58:37:115897,4,2,-2,4,-21,-11,-4,-3
10:58:37:116913,9,0,7,36,34,8,6,12
10:58:37:130896,-15,0,-3,-5,-13,-6,-8,-7
10:58:37:138852,-15,0,-3,-5,-13,-6,-8,-7
10:58:37:139094,-2,-4,-7,-22,-8,3,4,0
10:58:37:145775,9,2,8,17,7,2,0,-2
10:58:37:152948,9,2,8,17,7,2,0,-2
10:58:37:160394,-6,-3,6,0,-14,-5,-3,3
10:58:37:167622,4,5,-1,-4,9,-1,1,-4
10:58:37:176045,4,5,-1,-4,9,-1,1,-4
10:58:37:176831,-6,-10,-6,-10,-11,-8,-9,-9
10:58:37:190326,5,3,1,3,7,2,7,5
10:58:37:198529,5,3,1,3,7,2,7,5
10:58:37:199344,-3,1,1,10,6,2,1,-5
10:58:37:205316,6,0,-2,-1,-4,-1,-1,-2
10:58:37:212812,6,0,-2,-1,-4,-1,-1,-2
10:58:37:220386,3,-1,-7,-16,-13,-6,0,3
10:58:37:227616,-1,1,-3,-5,8,3,-4,-4
10:58:37:235981,-1,1,-3,-5,8,3,-4,-4
10:58:37:236769,-1,4,0,6,-3,0,-1,-2
10:58:37:250232,-1,-1,-2,-12,-2,0,0,1
10:58:37:258621,-1,-1,-2,-12,-2,0,0,1
10:58:37:259461,-1,10,6,13,10,2,-5,-9
10:58:37:265256,-12,-2,0,11,-5,-4,-5,-2
10:58:37:272840,-12,-2,0,11,-5,-4,-5,-2
10:58:37:280304,2,8,3,-4,1,4,3,-6
10:58:37:287829,2,9,3,2,-3,-3,0,0
10:58:37:296053,2,9,3,2,-3,-3,0,0
10:58:37:296807,16,-7,3,-5,6,3,-1,7
10:58:37:310391,-3,-2,-2,-4,0,0,2,6
10:58:37:318665,-3,-2,-2,-4,0,0,2,6
10:58:37:319456,6,-14,-9,-14,-11,-6,0,5
10:58:37:333689,1,-8,1,1,1,-2,1,5
10:58:37:334490,1,-8,1,1,1,-2,1,5
10:58:37:340293,-9,6,1,-4,-2,-1,8,0
10:58:37:347804,1,3,0,0,-2,-1,-3,-4
10:58:37:355711,1,3,0,0,-2,-1,-3,-4
10:58:37:362856,-8,-8,-6,-10,-10,-9,-6,-1
10:58:37:370535,6,-7,6,34,8,8,4,-3
10:58:37:378329,6,-7,6,34,8,8,4,-3
10:58:37:385347,-8,-4,-3,10,12,0,-2,2
10:58:37:393360,11,-4,-3,-13,-18,-4,-7,1
10:58:37:394229,11,-4,-3,-13,-18,-4,-7,1
10:58:37:400120,-11,0,6,13,13,2,-2,-2
10:58:37:407742,-1,-6,-1,-5,-5,-5,-3,-2
10:58:37:423460,-1,-6,-1,-5,-5,-5,-3,-2
10:58:37:424281,5,-6,-8,-10,-4,-1,-1,-8
10:58:37:430304,-2,2,-3,-8,1,-6,-10,-2
10:58:37:438436,-2,2,-3,-8,1,-6,-10,-2
10:58:37:439221,1,-35,-10,-9,-11,-7,-7,0
10:58:37:453752,-1,4,-3,-6,6,5,10,2
10:58:37:454194,-1,4,-3,-6,6,5,10,2
10:58:37:460274,-1,17,2,2,-7,-2,0,1
10:58:37:467686,-2,-8,-5,-7,1,0,2,-2
10:58:37:475293,-2,-8,-5,-7,1,0,2,-2
10:58:37:483058,6,9,-1,-3,-5,-3,-2,1
10:58:37:490275,-6,10,-1,-5,1,1,-1,1
10:58:37:498716,-6,10,-1,-5,1,1,-1,1
10:58:37:499295,-1,-18,-5,-8,-5,-2,0,0
10:58:37:513479,6,-9,-8,-7,1,-1,-1,-3
10:58:37:514245,6,-9,-8,-7,1,-1,-1,-3
10:58:37:520187,6,4,2,11,2,3,1,3
10:58:37:527748,-13,-21,-5,-3,-6,-5,-3,-4
10:58:37:535274,-13,-21,-5,-3,-6,-5,-3,-4
10:58:37:542714,0,24,3,-6,-1,-2,8,9
10:58:37:550184,1,2,-2,0,1,3,1,-2
10:58:37:558417,1,2,-2,0,1,3,1,-2
10:58:37:559254,-2,-5,-3,1,-3,-4,-6,2
10:58:37:573417,-1,3,3,-3,3,1,-6,-2
10:58:37:574191,-1,3,3,-3,3,1,-6,-2
10:58:37:580292,-3,5,0,0,-3,2,0,-4
10:58:37:596016,-3,5,5,2,3,1,-1,-1
10:58:37:596804,-3,5,5,2,3,1,-1,-1
10:58:37:603025,-5,-3,-3,-7,-5,-6,-7,-3
10:58:37:610133,-5,16,-8,3,0,3,17,48
10:58:37:618693,-5,16,-8,3,0,3,17,48
10:58:37:619291,-11,-48,12,-9,-1,1,4,6
10:58:37:633497,-15,0,13,5,-2,-3,-10,-33
10:58:37:634343,-15,0,13,5,-2,-3,-10,-33
10:58:37:640313,17,7,17,7,6,4,-19,-69
10:58:37:647778,11,-8,37,-1,2,0,3,-21
10:58:37:655361,11,-8,37,-1,2,0,3,-21
10:58:37:662822,-4,21,76,11,-6,-7,-8,-1
10:58:37:670327,9,16,-6,-1,0,-1,-1,5
10:58:37:678525,9,16,-6,-1,0,-1,-1,5
10:58:37:679340,-6,-6,-32,-4,0,1,5,26
10:58:37:693500,-4,-16,-2,-1,-1,-4,-11,-12
10:58:37:694338,-4,-16,-2,-1,-1,-4,-11,-12
10:58:37:700226,5,7,-38,-9,-3,-1,-5,0
10:58:37:708136,1,-3,9,-3,2,7,26,38
10:58:37:715384,1,-3,9,-3,2,7,26,38
10:58:37:722907,-18,-5,-20,-8,-3,0,0,16
10:58:37:730420,-7,-1,-28,-6,-4,-5,-13,-8
10:58:37:738590,-7,-1,-28,-6,-4,-5,-13,-8
10:58:37:739520,-10,9,26,7,4,2,10,25
10:58:37:753422,-1,0,-20,-2,-3,-3,-2,5
10:58:37:754415,-1,0,-20,-2,-3,-3,-2,5
10:58:37:760372,10,1,0,4,3,1,-3,-9
10:58:37:767616,8,-2,37,5,0,1,1,-3
10:58:37:775259,8,-2,37,5,0,1,1,-3
10:58:37:783255,-1,30,38,10,8,3,-2,-12
10:58:37:790526,-16,-5,-69,-26,-28,-19,-13,-22
10:58:37:798578,-16,-5,-69,-26,-28,-19,-13,-22
10:58:37:799354,-18,-16,12,-6,-6,-3,4,-14
10:58:37:813461,2,2,6,-1,2,0,-9,-18
10:58:37:814397,2,2,6,-1,2,0,-9,-18
10:58:37:820367,4,1,-4,9,4,4,-2,-13
10:58:37:827735,2,2,-16,-2,3,5,-2,-5
10:58:37:835499,2,2,-16,-2,3,5,-2,-5
10:58:37:842870,1,-7,-28,-3,0,-3,0,17
10:58:37:850378,1,-4,7,2,1,-1,-2,19
10:58:37:858704,1,-4,7,2,1,-1,-2,19
10:58:37:859403,0,-9,-5,-1,-5,-4,0,4
10:58:37:873419,-2,0,19,8,5,1,1,-9
10:58:37:874338,-2,0,19,8,5,1,1,-9
10:58:37:880384,6,-26,-28,-13,-5,-3,-2,-8
10:58:37:887708,0,20,14,9,2,2,3,12
10:58:37:895470,0,20,14,9,2,2,3,12
10:58:37:902885,-1,-3,-6,-6,-3,-1,-1,9
10:58:37:910348,4,-18,26,-9,3,1,3,19
10:58:37:918561,4,-18,26,-9,3,1,3,19
10:58:37:919279,-6,-6,18,6,1,-3,0,-4
10:58:37:933505,1,3,14,3,2,1,-6,-15
10:58:37:934400,1,3,14,3,2,1,-6,-15
10:58:37:940339,-1,-3,-20,-5,0,2,2,5
10:58:37:947784,1,-2,-13,-2,-1,0,-1,3
10:58:37:955506,1,-2,-13,-2,-1,0,-1,3
10:58:37:962888,2,23,10,5,-1,0,-2,-1
10:58:37:970393,-6,-10,-25,-4,-2,-1,-1,-5
10:58:37:978557,-6,-10,-25,-4,-2,-1,-1,-5
10:58:37:979364,-1,1,-2,-5,-3,-3,1,-1
10:58:37:993980,-3,-1,1,-3,-3,-2,0,-3
10:58:37:994211,-3,-1,1,-3,-3,-2,0,-3
10:58:38:148,3,12,-8,-2,0,-1,0,1
10:58:38:7805,2,26,10,3,-1,-1,4,-2
10:58:38:15780,2,26,10,3,-1,-1,4,-2
10:58:38:22900,5,12,16,3,0,1,5,10
10:58:38:30166,-6,-13,-17,-3,-3,-3,-6,-8
10:58:38:38482,-6,-13,-17,-3,-3,-3,-6,-8
10:58:38:39518,-2,-2,-12,-1,0,9,9,-3
10:58:38:53752,2,-4,12,4,-1,0,4,31
10:58:38:54220,2,-4,12,4,-1,0,4,31
10:58:38:60550,-14,-32,-24,-8,-8,-10,-11,-11
10:58:38:67817,3,3,1,-6,1,-1,-3,-5
10:58:38:75263,3,3,1,-6,1,-1,-3,-5
10:58:38:82810,-6,1,-20,-5,0,0,-3,0
10:58:38:90337,2,-13,-5,1,0,0,0,-6
10:58:38:98550,2,-13,-5,1,0,0,0,-6
10:58:38:99269,5,3,-16,-8,-1,-1,-1,-3
10:58:38:113844,-2,-8,-4,2,-1,-1,3,-3
10:58:38:114075,-2,-8,-4,2,-1,-1,3,-3
10:58:38:120178,1,5,9,3,0,-1,-1,2
10:58:38:127854,-3,-3,-8,-4,-2,-1,-3,-4
10:58:38:135331,-3,-3,-8,-4,-2,-1,-3,-4
10:58:38:142803,1,0,1,4,-1,-3,-4,-1
10:58:38:150358,-9,-4,-3,-3,0,0,-1,-5
10:58:38:158514,-9,-4,-3,-3,0,0,-1,-5
10:58:38:159299,0,-1,1,-2,-1,-1,-2,0
10:58:38:173393,-3,-4,-8,-2,-2,-2,-2,-5
10:58:38:174286,-3,-4,-8,-2,-2,-2,-2,-5
10:58:38:180346,2,2,4,5,7,2,-1,2
10:58:38:187782,0,-3,-1,1,-1,-2,0,11
10:58:38:195309,0,-3,-1,1,-1,-2,0,11
10:58:38:202872,1,-1,-1,-2,-4,-5,-1,0
10:58:38:210367,2,-1,-3,-1,-2,-2,-2,-4
10:58:38:218511,2,-1,-3,-1,-2,-2,-2,-4
10:58:38:219593,-1,0,-2,-1,-2,0,1,-1
10:58:38:233767,2,3,8,2,-1,-2,-3,-2
10:58:38:234328,2,3,8,2,-1,-2,-3,-2
10:58:38:240171,2,-4,-51,-18,-5,-1,-1,2
10:58:38:247714,-4,-6,-5,-4,-1,-1,-1,-5
10:58:38:255399,-4,-6,-5,-4,-1,-1,-1,-5
10:58:38:262911,-1,1,11,2,-1,2,0,-2
10:58:38:270400,2,8,2,0,-1,1,-1,-2
10:58:38:277719,2,8,2,0,-1,1,-1,-2
10:58:38:285430,-5,-8,5,2,0,-3,-2,-2
10:58:38:293491,-2,6,7,1,0,-1,0,-3
10:58:38:294427,-2,6,7,1,0,-1,0,-3
10:58:38:300394,-9,-6,4,-13,-3,-1,-1,-4
10:58:38:315979,5,0,-8,-1,-1,-1,-2,-3
10:58:38:316938,5,0,-8,-1,-1,-1,-2,-3
10:58:38:322737,6,5,11,9,2,1,-1,0
10:58:38:330598,3,-4,-6,-11,-3,-2,-2,-2
10:58:38:338133,3,-4,-6,-11,-3,-2,-2,-2
10:58:38:345477,-8,-3,-2,-27,-3,-4,-3,-3
10:58:38:353440,-6,3,-1,3,-1,0,0,-1
10:58:38:354299,-6,3,-1,3,-1,0,0,-1
10:58:38:360316,0,-1,2,1,-3,1,0,-2
10:58:38:375809,2,0,3,10,2,-1,-3,-1
10:58:38:376754,2,0,3,10,2,-1,-3,-1
10:58:38:382777,4,4,4,9,-3,0,-2,0
10:58:38:390181,4,-3,-6,-3,-1,0,-1,-2
10:58:38:397721,4,-3,-6,-3,-1,0,-1,-2
10:58:38:405207,-33,-7,1,17,-2,-1,-1,-3
10:58:38:413505,-2,6,-2,0,-2,-1,-1,-2
10:58:38:414219,-2,6,-2,0,-2,-1,-1,-2
10:58:38:420347,29,1,-4,-17,2,-1,4,13
10:58:38:435868,-40,-10,-5,6,-2,-2,-1,-13
10:58:38:437039,-40,-10,-5,6,-2,-2,-1,-13
10:58:38:443029,-24,2,4,16,2,-2,-11,-18
10:58:38:450260,-4,6,4,-3,-1,0,2,12
10:58:38:457955,-4,6,4,-3,-1,0,2,12
10:58:38:465279,13,0,1,6,0,0,4,5
10:58:38:473838,7,1,4,6,1,1,0,0
10:58:38:474283,7,1,4,6,1,1,0,0
10:58:38:480286,2,-6,-5,-12,-4,-3,-2,-3
10:58:38:495864,6,-3,0,6,1,-2,-6,-13
10:58:38:496679,6,-3,0,6,1,-2,-6,-13
10:58:38:502617,-9,-4,0,-14,-2,-3,-3,1
10:58:38:510282,4,-1,-1,-4,-1,1,2,5
10:58:38:517834,4,-1,-1,-4,-1,1,2,5
10:58:38:525679,10,-4,-4,-2,-4,-3,-5,-1
10:58:38:533694,15,6,-1,-9,-2,-1,-1,-6
10:58:38:534433,15,6,-1,-9,-2,-1,-1,-6
10:58:38:540417,3,-2,8,18,3,0,1,1
10:58:38:555946,16,0,5,4,-1,-1,1,5
10:58:38:556936,16,0,5,4,-1,-1,1,5
10:58:38:571096,-3,8,0,6,1,-1,0,-2
10:58:38:571940,-2,-2,-9,-41,-5,-1,0,2
10:58:38:577815,-2,-2,-9,-41,-5,-1,0,2
10:58:38:585317,-14,-1,-4,-4,-3,0,2,1
10:58:38:593499,-16,-13,-3,-2,-1,-1,0,2
10:58:38:594322,-16,-13,-3,-2,-1,-1,0,2
10:58:38:600409,-1,-1,-1,2,2,2,9,29
10:58:38:616297,-10,-4,-2,8,-3,-6,-20,-13
10:58:38:616856,-10,-4,-2,8,-3,-6,-20,-13
10:58:38:623196,25,7,3,10,0,3,8,2
10:58:38:630311,-10,-11,-6,-32,-6,-5,-1,1
10:58:38:638100,-10,-11,-6,-32,-6,-5,-1,1
10:58:38:645206,1,1,-1,-7,-1,-3,-1,6
10:58:38:653955,7,5,1,-15,0,2,-1,-7
10:58:38:654177,7,5,1,-15,0,2,-1,-7
10:58:38:660337,23,1,-1,-3,-1,0,-3,-11
10:58:38:676030,-3,-5,3,23,4,0,-2,-11
10:58:38:676801,-3,-5,3,23,4,0,-2,-11
10:58:38:682794,-5,-1,3,15,-1,1,-3,12
10:58:38:690338,-14,-8,-2,3,1,0,-2,13
10:58:38:697726,-14,-8,-2,3,1,0,-2,13
10:58:38:705294,-5,2,-8,-7,-2,-3,-6,-15
10:58:38:713503,-5,-3,4,14,0,2,5,1
10:58:38:714327,-5,-3,4,14,0,2,5,1
10:58:38:720399,-7,-3,-4,1,-3,-1,-2,-3
10:58:38:736063,-18,4,0,10,2,2,-1,-10
10:58:38:736920,-18,4,0,10,2,2,-1,-10
10:58:38:742891,2,-1,-1,-14,-5,-3,-2,-2
10:58:38:750397,-20,-2,2,12,2,-1,-2,-5
10:58:38:757741,-20,-2,2,12,2,-1,-2,-5
10:58:38:765166,-2,-3,4,19,2,1,-2,-6
10:58:38:773410,22,0,-9,-20,-4,-4,3,4
10:58:38:774111,22,0,-9,-20,-4,-4,3,4
10:58:38:780189,-8,-9,-4,-7,-1,-1,-3,-7
10:58:38:796009,17,8,2,6,-1,-1,1,7
10:58:38:796848,17,8,2,6,-1,-1,1,7
10:58:38:802715,7,0,0,-3,0,0,0,-6
10:58:38:810506,5,-10,-3,-9,-3,-4,-5,-1
10:58:38:817722,5,-10,-3,-9,-3,-4,-5,-1
10:58:38:825560,-5,5,3,-3,0,-1,-2,-15
10:58:38:833544,17,2,-8,-26,-4,0,1,-9
10:58:38:834403,17,2,-8,-26,-4,0,1,-9
10:58:38:840379,-3,-6,1,6,-1,1,1,4
10:58:38:855994,8,-6,-1,10,-3,-1,-2,1
10:58:38:856819,8,-6,-1,10,-3,-1,-2,1
10:58:38:862843,-2,3,-4,-24,-3,-2,0,-3
10:58:38:870350,-3,3,4,6,2,-1,1,5
10:58:38:877858,-3,3,4,6,2,-1,1,5
10:58:38:885709,-7,-7,0,4,0,-1,-1,2
10:58:38:893529,4,3,-6,-19,-1,-2,1,3
10:58:38:894569,4,3,-6,-19,-1,-2,1,3
10:58:38:900403,-2,2,1,-3,-2,-4,-2,-1
10:58:38:916055,-5,-1,3,11,1,0,-3,-1
10:58:38:916920,-5,-1,3,11,1,0,-3,-1
10:58:38:922898,3,0,-3,-3,-1,0,-3,-1
10:58:38:930402,-18,-6,2,10,0,0,0,-2
10:58:38:937905,-18,-6,2,10,0,0,0,-2
10:58:38:945461,-13,-9,-2,3,-3,-2,-3,-5
10:58:38:953655,13,7,3,4,-2,0,-1,0
10:58:38:954450,13,7,3,4,-2,0,-1,0
10:58:38:960245,-4,2,-8,-32,-1,-2,-2,-4
10:58:38:975959,-33,-6,-8,-16,-2,-2,-2,-1
10:58:38:976941,-33,-6,-8,-16,-2,-2,-2,-1
10:58:38:982914,3,0,0,4,2,-1,0,0
10:58:38:990380,3,3,4,16,1,1,3,9
10:58:38:997767,3,3,4,16,1,1,3,9
10:58:39:5128,-2,0,-2,-3,-2,-2,-2,-1
10:58:39:13788,-1,-3,-1,2,-2,-1,2,-3
10:58:39:14043,-1,-3,-1,2,-2,-1,2,-3
10:58:39:20473,10,-1,-1,3,-2,-1,0,0
10:58:39:35872,2,-1,-1,3,0,-2,-5,-14
10:58:39:36947,2,-1,-1,3,0,-2,-5,-14
10:58:39:42696,-21,-2,1,7,0,-2,0,3
10:58:39:50265,-15,3,-11,-23,-4,-3,-2,-7
10:58:39:57702,-15,3,-11,-23,-4,-3,-2,-7
10:58:39:65306,8,0,3,12,-1,0,-4,-3
10:58:39:73443,5,0,0,-4,-3,0,0,4
10:58:39:74256,5,0,0,-4,-3,0,0,4
10:58:39:80239,-7,-3,-1,5,-2,-1,-1,0
10:58:39:95878,9,-2,4,6,1,-1,-2,2
10:58:39:96755,9,-2,4,6,1,-1,-2,2
10:58:39:102763,9,2,-1,4,-1,-2,-1,0
10:58:39:118523,9,2,-1,4,-1,-2,-1,0
10:58:39:119320,17,1,-5,-29,-5,-2,-2,0
10:58:39:125338,-20,-7,-4,-14,-1,-2,-4,-8
10:58:39:133468,-20,-7,-4,-14,-1,-2,-4,-8
10:58:39:134309,-1,1,3,11,1,-2,-2,1
10:58:39:140352,24,5,2,9,-1,0,2,1
10:58:39:156215,24,5,2,9,-1,0,2,1
10:58:39:156764,-5,-11,2,10,-1,-1,-2,1
10:58:39:162733,1,2,-12,-41,-5,-3,-1,0
10:58:39:178507,1,2,-12,-41,-5,-3,-1,0
10:58:39:179343,-15,-2,2,6,0,0,-2,0
10:58:39:185341,-7,-2,2,4,1,0,-3,0
10:58:39:193470,-7,-2,2,4,1,0,-3,0
10:58:39:194374,7,2,3,11,1,-2,-2,-2
10:58:39:200178,-4,0,1,0,0,-1,0,1
10:58:39:216032,-4,0,1,0,0,-1,0,1
10:58:39:216937,-2,-5,0,8,0,-2,-2,-1
10:58:39:222792,8,2,-1,-12,0,0,0,0
10:58:39:238655,8,2,-1,-12,0,0,0,0
10:58:39:239398,7,8,-2,-2,-2,0,0,0
10:58:39:245406,-2,-2,4,12,0,0,0,0
10:58:39:253523,-2,-2,4,12,0,0,0,0
10:58:39:254434,0,-1,-3,6,0,1,0,0
10:58:39:267762,13,-1,-1,10,0,-1,1,-1
10:58:39:275887,13,-1,-1,10,0,-1,1,-1
10:58:39:276752,4,-3,-1,-3,-3,-2,-3,-5
10:58:39:282759,5,-1,0,2,-2,-1,-4,0
10:58:39:298550,5,-1,0,2,-2,-1,-4,0
10:58:39:299411,-14,-4,-5,-3,0,0,1,3
10:58:39:305327,-4,-1,0,-1,0,-2,-1,2
10:58:39:313504,-4,-1,0,-1,0,-2,-1,2
10:58:39:314509,0,2,-5,-14,-2,-2,-1,-2
10:58:39:327722,-10,0,0,2,1,-1,0,-2
10:58:39:336051,-10,0,0,2,1,-1,0,-2
10:58:39:336823,-11,-4,2,29,0,-3,-1,-2
10:58:39:343046,1,0,1,12,-2,-3,-2,-2
10:58:39:358525,1,0,1,12,-2,-3,-2,-2
10:58:39:359290,2,1,3,7,1,2,-1,1
10:58:39:365181,-1,-2,-1,-2,-1,0,1,-2
