Time,EMG1,EMG2,EMG3,EMG4,EMG5,EMG6,EMG7,EMG8
11:01:07:43689,2,-2,-3,-28,7,2,-1,2
11:01:07:59521,2,-2,-3,-28,7,2,-1,2
11:01:07:60127,1,1,1,-9,-11,-9,-3,0
11:01:07:66426,-5,-2,5,29,7,5,0,1
11:01:07:74434,-5,-2,5,29,7,5,0,1
11:01:07:75206,-14,-2,0,-3,-3,-1,-2,0
11:01:07:89140,5,-3,-14,-44,-3,-3,1,-3
11:01:07:96924,5,-3,-14,-44,-3,-3,1,-3
11:01:07:98021,5,7,1,11,8,8,-2,3
11:01:07:103981,-14,-10,-10,-4,-9,-4,-1,-4
11:01:07:119647,-14,-10,-10,-4,-9,-4,-1,-4
11:01:07:120338,-3,-3,0,0,0,-1,0,0
11:01:07:126730,14,6,5,2,2,2,4,7
11:01:07:135029,14,6,5,2,2,2,4,7
11:01:07:135216,-21,-8,5,36,5,-2,-7,-9
11:01:07:148650,2,1,5,14,-9,-5,0,0
11:01:07:156954,2,1,5,14,-9,-5,0,0
11:01:07:157637,-7,0,-4,5,11,10,6,-2
11:01:07:163669,-9,-1,3,24,-1,-4,-1,10
11:01:07:179364,-9,-1,3,24,-1,-4,-1,10
11:01:07:180132,7,-2,-4,-21,-3,-4,-5,0
11:01:07:186128,-1,-1,1,-8,-1,6,-1,-1
11:01:07:194350,-1,-1,1,-8,-1,6,-1,-1
11:01:07:195128,4,-2,-5,3,-8,-7,2,3
11:01:07:208809,-9,-3,0,-28,-11,-10,-9,-11
11:01:07:216858,-9,-3,0,-28,-11,-10,-9,-11
11:01:07:217723,3,-1,-5,-2,-4,-3,2,-3
11:01:07:223784,5,4,0,16,6,3,3,-1
11:01:07:239474,5,4,0,16,6,3,3,-1
11:01:07:240480,0,-1,1,-4,-4,-2,-6,-7
11:01:07:246376,-11,0,1,-8,-7,-1,-1,-3
11:01:07:254697,-11,0,1,-8,-7,-1,-1,-3
11:01:07:255316,5,-3,-2,3,8,5,7,3
11:01:07:269250,9,-4,-5,-3,-2,-4,-6,-8
11:01:07:277526,9,-4,-5,-3,-2,-4,-6,-8
11:01:07:277798,-4,1,-2,-18,-1,-3,1,-2
11:01:07:284297,6,1,2,23,10,6,-3,0
11:01:07:299963,6,1,2,23,10,6,-3,0
11:01:07:300187,1,-5,-1,8,1,-3,-3,2
11:01:07:306796,3,2,-2,3,-5,-6,-3,-14
11:01:07:314881,3,2,-2,3,-5,-6,-3,-14
11:01:07:315261,0,-3,0,-10,-10,-5,0,-1
11:01:07:338148,0,1,0,12,12,2,0,2
11:01:07:338374,0,1,0,12,12,2,0,2
11:01:07:339064,5,4,-4,-12,-5,-6,-1,4
11:01:07:344342,-12,-6,-4,4,-11,-6,-1,-3
11:01:07:359531,-12,-6,-4,4,-11,-6,-1,-3
11:01:07:360336,12,1,2,0,12,4,0,-1
11:01:07:366309,-26,-4,-12,-40,-2,-1,1,-3
11:01:07:374713,-26,-4,-12,-40,-2,-1,1,-3
11:01:07:375261,-2,-1,-5,-17,-11,-3,-4,3
11:01:07:388936,5,9,4,14,7,5,3,4
11:01:07:397548,5,9,4,14,7,5,3,4
11:01:07:397810,-3,-3,-7,-13,2,-2,-3,-7
11:01:07:404278,7,-3,-10,-41,-10,-5,-2,-3
11:01:07:419964,7,-3,-10,-41,-10,-5,-2,-3
11:01:07:420193,4,2,2,11,1,1,0,-1
11:01:07:426471,2,-2,4,19,-2,-6,-6,-2
11:01:07:434451,2,-2,4,19,-2,-6,-6,-2
11:01:07:435180,-2,-2,2,-14,-4,-1,0,-2
11:01:07:448673,-9,-2,2,11,7,5,1,1
11:01:07:456904,-9,-2,2,11,7,5,1,1
11:01:07:457693,4,-4,-2,8,-6,-5,-2,-5
11:01:07:464293,-7,-1,4,18,-1,0,-2,1
11:01:07:479851,-7,-1,4,18,-1,0,-2,1
11:01:07:480303,6,0,6,34,5,2,0,8
11:01:07:486514,10,2,0,5,-9,-3,-1,-3
11:01:07:494639,10,2,0,5,-9,-3,-1,-3
11:01:07:501301,-6,1,-1,-5,-5,-2,-5,1
11:01:07:508883,3,-5,-3,9,-2,-2,2,0
11:01:07:517249,3,-5,-3,9,-2,-2,2,0
11:01:07:517833,0,4,-2,-26,3,2,1,-3
11:01:07:523673,6,-2,-9,-21,-4,-2,1,2
11:01:07:539470,6,-2,-9,-21,-4,-2,1,2
11:01:07:540273,-4,1,1,-2,3,-1,3,6
11:01:07:546300,10,0,-5,-9,-2,-3,-3,1
11:01:07:554476,10,0,-5,-9,-2,-3,-3,1
11:01:07:555328,-6,-2,1,9,-7,-2,4,0
11:01:07:568914,-7,-4,-5,-12,3,6,-2,5
11:01:07:577153,-7,-4,-5,-12,3,6,-2,5
11:01:07:577772,-11,-3,-4,-10,4,5,-5,-10
11:01:07:583743,-8,-4,4,-13,-5,-6,-5,-5
11:01:07:599539,-8,-4,4,-13,-5,-6,-5,-5
11:01:07:600405,-20,2,10,29,6,-1,0,-1
11:01:07:606133,2,-2,4,6,0,-2,1,0
11:01:07:614408,2,-2,4,6,0,-2,1,0
11:01:07:615270,6,-1,0,19,4,-3,-2,6
11:01:07:628726,-4,0,-5,2,-8,-5,0,2
11:01:07:636891,-4,0,-5,2,-8,-5,0,2
11:01:07:637640,-1,-3,2,8,0,0,-4,-7
11:01:07:643970,-8,2,-1,-5,1,0,-3,2
11:01:07:659381,-8,2,-1,-5,1,0,-3,2
11:01:07:660320,11,1,-6,-15,2,0,-2,1
11:01:07:666297,4,-1,-2,-1,-4,-6,-1,-2
11:01:07:674710,4,-1,-2,-1,-4,-6,-1,-2
11:01:07:675456,2,-4,-8,-16,-10,0,0,-4
11:01:07:688788,7,-1,6,16,5,1,-1,-3
11:01:07:697068,7,-1,6,16,5,1,-1,-3
11:01:07:697813,-5,0,4,21,-10,-8,-4,-1
11:01:07:703676,-1,0,2,0,0,-1,2,1
11:01:07:727898,-1,0,2,0,0,-1,2,1
11:01:07:728497,1,-5,-7,-14,-4,-1,-3,-4
11:01:07:729155,3,5,-1,-16,-1,-2,1,-7
11:01:07:734443,3,5,-1,-16,-1,-2,1,-7
11:01:07:735431,2,1,-5,-12,0,-1,-2,-14
11:01:07:748844,0,-1,0,17,4,3,-1,1
11:01:07:756912,0,-1,0,17,4,3,-1,1
11:01:07:757699,-1,3,5,13,1,1,4,5
11:01:07:763738,-3,-11,3,15,5,8,-3,-5
11:01:07:779792,-3,-11,3,15,5,8,-3,-5
11:01:07:780343,1,2,-6,-22,0,-2,-7,-6
11:01:07:786391,-13,2,5,33,-4,-9,-2,4
11:01:07:794603,-13,2,5,33,-4,-9,-2,4
11:01:07:795394,-3,-5,-3,11,2,0,2,-2
11:01:07:808921,9,5,2,21,4,1,0,1
11:01:07:817023,9,5,2,21,4,1,0,1
11:01:07:818149,1,1,1,6,-1,-2,5,6
11:01:07:831356,-1,-4,-3,-9,-3,3,-2,0
11:01:07:839417,-1,-4,-3,-9,-3,3,-2,0
11:01:07:840260,2,2,-3,-14,-7,-4,-3,6
11:01:07:846257,-4,1,0,-13,-9,-4,0,-9
11:01:07:853823,-4,1,0,-13,-9,-4,0,-9
11:01:07:861263,-8,-5,5,9,5,1,1,2
11:01:07:868899,-4,3,-6,-19,0,2,0,-1
11:01:07:877139,-4,3,-6,-19,0,2,0,-1
11:01:07:877666,-7,-6,2,-2,0,-2,-1,-3
11:01:07:891754,11,4,-8,-53,1,1,-1,-4
11:01:07:899848,11,4,-8,-53,1,1,-1,-4
11:01:07:900317,1,-2,-4,-19,-1,-1,-1,3
11:01:07:906319,-1,-8,4,24,6,3,-2,-1
11:01:07:913857,-1,-8,4,24,6,3,-2,-1
11:01:07:921360,-6,-6,-9,-9,-4,-1,-3,-3
11:01:07:929094,0,1,-5,-24,1,-3,-3,-1
11:01:07:937040,0,1,-5,-24,1,-3,-3,-1
11:01:07:938017,3,-1,1,3,-2,-2,0,-1
11:01:07:951345,-6,-5,-1,10,1,-4,-3,0
11:01:07:959392,-6,-5,-1,10,1,-4,-3,0
11:01:07:960164,-8,1,-13,-39,-11,-6,0,-6
11:01:07:966393,-2,-3,-11,-65,-3,5,3,4
11:01:07:973783,-2,-3,-11,-65,-3,5,3,4
11:01:07:981284,-7,-3,-1,4,-2,0,-2,-1
11:01:07:988813,-1,-3,2,31,-7,-5,-3,-3
11:01:07:997058,-1,-3,2,31,-7,-5,-3,-3
11:01:08:3769,-1,-1,-10,-22,6,1,0,2
11:01:08:11670,-4,-3,2,13,1,2,-1,0
11:01:08:19461,-4,-3,2,13,1,2,-1,0
11:01:08:20307,-8,6,7,16,-7,0,-1,-10
11:01:08:26555,-1,-4,-3,-23,-1,-1,2,3
11:01:08:33923,-1,-4,-3,-23,-1,-1,2,3
11:01:08:41709,5,-2,4,11,-7,-3,-2,0
11:01:08:57637,1,3,3,-2,2,-5,-6,-9
11:01:08:58180,1,3,3,-2,2,-5,-6,-9
11:01:08:63730,8,2,-4,-5,-1,1,-5,3
11:01:08:71179,2,-1,-6,-5,-3,0,5,3
11:01:08:79432,2,-1,-6,-5,-3,0,5,3
11:01:08:80250,11,-2,1,15,4,4,1,-6
11:01:08:86235,-2,4,1,12,3,4,2,1
11:01:08:93622,-2,4,1,12,3,4,2,1
11:01:08:101213,0,1,4,7,0,3,-1,3
11:01:08:108749,6,4,7,49,6,0,-1,3
11:01:08:116928,6,4,7,49,6,0,-1,3
11:01:08:117572,-20,-7,2,9,3,-4,0,-2
11:01:08:140131,1,1,-5,-11,-9,-1,1,-4
11:01:08:140940,1,1,-5,-11,-9,-1,1,-4
11:01:08:141748,2,-4,-13,-24,8,1,-1,-1
11:01:08:146453,-3,3,2,25,2,0,-8,-3
11:01:08:153743,-3,3,2,25,2,0,-8,-3
11:01:08:169396,3,4,5,14,0,-1,3,2
11:01:08:170134,-5,-4,-5,-30,-13,-4,0,6
11:01:08:176987,-5,-4,-5,-30,-13,-4,0,6
11:01:08:177769,3,1,6,11,0,0,-3,2
11:01:08:191490,-15,-8,9,58,14,2,-4,-2
11:01:08:199361,-15,-8,9,58,14,2,-4,-2
11:01:08:200451,6,-2,-5,-12,-10,-6,-1,-2
11:01:08:206353,11,-1,-4,-23,-19,-10,-2,0
11:01:08:213864,11,-1,-4,-23,-19,-10,-2,0
11:01:08:221406,-1,0,1,19,18,8,4,-1
11:01:08:228701,-1,-5,-2,-1,-1,-4,-2,-2
11:01:08:237212,-1,-5,-2,-1,-1,-4,-2,-2
11:01:08:237796,0,0,-2,-14,-12,-13,-3,1
11:01:08:251344,2,1,4,5,3,3,5,3
11:01:08:259760,2,1,4,5,3,3,5,3
11:01:08:260199,5,2,-6,-42,-17,-12,-9,-5
11:01:08:266286,-5,0,4,34,10,2,-2,-3
11:01:08:273861,-5,0,4,34,10,2,-2,-3
11:01:08:281303,-8,-3,-12,-31,-10,-5,-4,6
11:01:08:288868,-5,-2,3,6,-20,-12,-4,-7
11:01:08:297335,-5,-2,3,6,-20,-12,-4,-7
11:01:08:297660,-6,-5,-6,-14,-6,-3,7,1
11:01:08:311554,-3,-7,-4,-14,5,5,-3,-11
11:01:08:319643,-3,-7,-4,-14,5,5,-3,-11
11:01:08:320423,1,3,4,-5,0,4,1,-1
11:01:08:326343,8,-1,-3,-17,0,-1,-2,1
11:01:08:333866,8,-1,-3,-17,0,-1,-2,1
11:01:08:341374,-14,-2,3,24,3,3,-8,-12
11:01:08:348866,3,2,3,-3,-6,3,4,5
11:01:08:356880,3,2,3,-3,-6,3,4,5
11:01:08:357660,2,-1,-6,-14,19,11,0,-8
11:01:08:371403,-3,0,-4,-9,-14,-8,-6,0
11:01:08:379413,-3,0,-4,-9,-14,-8,-6,0
11:01:08:380344,-3,-1,-3,-35,6,-1,2,2
11:01:08:386276,0,-2,-1,-2,3,0,1,6
11:01:08:393808,0,-2,-1,-2,3,0,1,6
11:01:08:401253,-10,-1,5,33,-10,-6,-3,0
11:01:08:408714,-4,1,-3,-5,5,1,2,1
11:01:08:416918,-4,1,-3,-5,5,1,2,1
11:01:08:417707,5,1,3,20,4,2,0,1
11:01:08:431436,-3,-1,-3,4,-2,-3,-7,0
11:01:08:439441,-3,-1,-3,4,-2,-3,-7,0
11:01:08:440304,0,0,5,18,-1,8,1,-2
11:01:08:446261,4,4,-5,-33,9,1,8,4
11:01:08:453715,4,4,-5,-33,9,1,8,4
11:01:08:461257,-4,-3,-4,-25,-13,-3,-15,-4
11:01:08:468802,-2,-2,-2,5,3,0,0,0
11:01:08:477057,-2,-2,-2,5,3,0,0,0
11:01:08:477840,-3,-4,8,44,-10,-8,3,-3
11:01:08:491451,-14,-5,-2,-2,6,9,2,-2
11:01:08:499786,-14,-5,-2,-2,6,9,2,-2
11:01:08:500379,8,3,-2,12,7,0,-1,3
11:01:08:506272,-6,-3,-1,-11,-12,-5,-1,-3
11:01:08:513753,-6,-3,-1,-11,-12,-5,-1,-3
11:01:08:521725,1,-3,2,6,-4,-2,1,0
11:01:08:529272,3,4,2,0,4,0,-2,-6
11:01:08:537064,3,4,2,0,4,0,-2,-6
11:01:08:537671,5,-3,-1,-23,-3,1,0,-2
11:01:08:551345,-19,-4,-6,-31,6,1,-6,-8
11:01:08:559460,-19,-4,-6,-31,6,1,-6,-8
11:01:08:560245,4,-4,-10,-17,-5,-4,2,2
11:01:08:566172,11,3,8,26,-2,-3,3,-6
11:01:08:573631,11,3,8,26,-2,-3,3,-6
11:01:08:581321,0,-4,-11,-20,4,1,0,-2
11:01:08:588815,1,-1,-1,15,-2,-3,-3,-11
11:01:08:597275,1,-1,-1,15,-2,-3,-3,-11
11:01:08:597646,8,4,4,17,1,0,-1,0
11:01:08:611734,3,-3,-2,-4,0,0,0,3
11:01:08:619498,3,-3,-2,-4,0,0,0,3
11:01:08:620427,-7,-4,1,9,3,0,2,-2
11:01:08:626430,-10,-4,-3,-5,-10,-5,-6,-5
11:01:08:633793,-10,-4,-3,-5,-10,-5,-6,-5
11:01:08:641369,-2,0,0,3,5,3,2,3
11:01:08:648943,0,-1,-1,-3,-3,-4,2,5
11:01:08:656913,0,-1,-1,-3,-3,-4,2,5
11:01:08:657844,-3,-3,-3,9,-4,-6,-9,-3
11:01:08:671653,-3,-2,-12,-4,6,0,-1,-2
11:01:08:679811,-3,-2,-12,-4,6,0,-1,-2
11:01:08:680331,-1,0,4,25,-1,-2,1,-2
11:01:08:686447,-1,0,-1,-9,-4,-2,1,1
11:01:08:693851,-1,0,-1,-9,-4,-2,1,1
11:01:08:701397,2,0,0,0,1,0,0,4
11:01:08:708897,-16,-4,6,15,-7,-4,-1,-8
11:01:08:717150,-16,-4,6,15,-7,-4,-1,-8
11:01:08:717899,2,0,-8,-15,1,1,-2,6
11:01:08:731388,-5,0,-7,-44,-2,1,-1,-4
11:01:08:739422,-5,0,-7,-44,-2,1,-1,-4
11:01:08:740422,-6,-1,3,9,2,0,2,-7
11:01:08:754584,13,1,-4,4,-7,-2,-2,0
11:01:08:755408,13,1,-4,4,-7,-2,-2,0
11:01:08:761180,-3,0,-3,-12,-2,8,3,3
11:01:08:768895,4,3,4,2,-3,-1,-6,2
11:01:08:777468,4,3,4,2,-3,-1,-6,2
11:01:08:777736,7,-4,2,12,-2,-5,-10,-10
11:01:08:791578,-3,-3,5,35,9,1,1,-3
11:01:08:799395,-3,-3,5,35,9,1,1,-3
11:01:08:800398,6,2,1,-2,-3,-8,0,-4
11:01:08:814585,-20,3,0,-13,-14,-2,3,9
11:01:08:815371,-20,3,0,-13,-14,-2,3,9
11:01:08:821259,-28,-11,-4,-9,3,-1,-8,-6
11:01:08:828945,18,3,3,25,5,-5,-2,-2
11:01:08:836460,18,3,3,25,5,-5,-2,-2
11:01:08:843858,-2,1,1,-6,-11,-3,2,6
11:01:08:851382,-10,-7,3,8,9,-1,-6,-1
11:01:08:859437,-10,-7,3,8,9,-1,-6,-1
11:01:08:860301,-18,-3,0,-24,-9,3,1,-2
11:01:08:874687,9,-5,-17,-65,-2,3,2,1
11:01:08:875264,9,-5,-17,-65,-2,3,2,1
11:01:08:881726,2,6,6,19,9,-1,4,14
11:01:08:888921,6,6,-5,-14,-13,-4,-6,-6
11:01:08:896656,6,6,-5,-14,-13,-4,-6,-6
11:01:08:903726,8,2,0,8,8,7,7,2
11:01:08:911465,4,-2,-2,12,-3,-6,-16,-2
11:01:08:919486,4,-2,-2,12,-3,-6,-16,-2
11:01:08:920240,8,0,0,-1,-6,-6,-6,2
11:01:08:934723,-21,-15,-6,-12,-6,-2,-16,-13
11:01:08:935296,-21,-15,-6,-12,-6,-2,-16,-13
11:01:08:941192,-1,-3,-4,-6,-1,-2,-7,-6
11:01:08:948919,10,1,-14,-24,-1,-1,9,6
11:01:08:956334,10,1,-14,-24,-1,-1,9,6
11:01:08:963681,-2,9,2,9,11,5,9,8
11:01:08:971310,-8,-4,-2,-11,-2,0,5,3
11:01:08:979742,-8,-4,-2,-11,-2,0,5,3
11:01:08:980389,0,-6,1,-3,-27,-13,-2,-4
11:01:08:994802,11,11,-20,-68,31,13,9,13
11:01:08:995292,11,11,-20,-68,31,13,9,13
11:01:09:1398,-32,-7,-6,-6,-9,-4,-9,-9
11:01:09:8863,13,-5,7,26,-15,-5,5,2
11:01:09:16301,13,-5,7,26,-15,-5,5,2
11:01:09:23724,8,0,-1,-3,-3,-3,-2,-16
11:01:09:31935,-4,1,5,17,2,-3,1,-1
11:01:09:32752,-4,1,5,17,2,-3,1,-1
11:01:09:38746,8,1,3,23,-3,2,3,-4
11:01:09:54404,1,-1,0,-34,8,4,-1,-9
11:01:09:55329,1,-1,0,-34,8,4,-1,-9
11:01:09:61306,-5,-1,-3,-11,8,3,0,-1
11:01:09:68757,-6,6,6,34,-7,-5,3,2
11:01:09:76299,-6,6,6,34,-7,-5,3,2
11:01:09:83848,7,3,-6,-17,-8,-3,-2,-5
11:01:09:100089,-2,-2,6,31,-8,3,11,-3
11:01:09:100902,-2,-2,6,31,-8,3,11,-3
11:01:09:101681,-4,-5,-24,-38,16,15,6,29
11:01:09:114415,-9,-4,15,51,-3,-3,-4,1
11:01:09:115273,-9,-4,15,51,-3,-3,-4,1
11:01:09:121225,5,-3,7,48,8,-1,1,1
11:01:09:128985,0,9,-1,5,-5,-3,-7,-6
11:01:09:144424,0,9,-1,5,-5,-3,-7,-6
11:01:09:145246,-21,-7,-1,-10,-13,-10,-9,-8
11:01:09:151948,2,-5,5,28,-10,-4,-5,-3
11:01:09:152952,2,-5,5,28,-10,-4,-5,-3
11:01:09:158950,25,3,3,-2,21,7,2,-3
11:01:09:174415,-10,-5,-3,-15,-7,-4,-2,1
11:01:09:175243,-10,-5,-3,-15,-7,-4,-2,1
11:01:09:181219,1,-3,1,3,-8,-4,-1,-6
11:01:09:188990,6,-13,-3,-9,-2,-1,-3,2
11:01:09:196303,6,-13,-3,-9,-2,-1,-3,2
11:01:09:203644,1,0,3,5,5,-1,-2,3
11:01:09:211982,-1,0,4,0,-7,-4,2,5
11:01:09:212827,-1,0,4,0,-7,-4,2,5
11:01:09:218871,-1,-1,-10,-36,-15,-4,-6,-17
11:01:09:234432,4,-1,-1,13,21,4,-1,-4
11:01:09:235278,4,-1,-1,13,21,4,-1,-4
11:01:09:241393,-1,35,-3,-18,-11,-4,-2,5
11:01:09:248786,2,5,-7,-16,-13,-14,-1,-4
11:01:09:264494,2,5,-7,-16,-13,-14,-1,-4
11:01:09:265316,-1,-11,3,19,16,5,0,-2
11:01:09:271957,1,-22,0,16,-2,0,2,1
11:01:09:272820,1,-22,0,16,-2,0,2,1
11:01:09:278845,-2,-19,-3,-8,-10,-6,-2,-5
11:01:09:294692,-6,-9,-5,-14,2,1,-1,0
11:01:09:295484,-6,-9,-5,-14,2,1,-1,0
11:01:09:301341,3,-3,3,11,1,-2,-1,-4
11:01:09:308841,-1,9,-4,-12,2,1,-2,-2
11:01:09:316378,-1,9,-4,-12,2,1,-2,-2
11:01:09:323832,-4,3,3,10,-2,-4,1,2
11:01:09:331229,-1,-15,-3,-4,1,3,-3,-7
11:01:09:339459,-1,-15,-3,-4,1,3,-3,-7
11:01:09:340444,1,-6,0,-2,-2,-1,-3,11
11:01:09:354692,2,2,-1,1,0,2,0,1
11:01:09:355311,2,2,-1,1,0,2,0,1
11:01:09:361346,-1,-1,0,-2,0,1,1,-3
11:01:09:368864,-7,11,5,5,3,1,1,-6
11:01:09:376343,-7,11,5,5,3,1,1,-6
11:01:09:383741,-12,-25,-7,-2,-2,0,0,33
11:01:09:391347,2,-21,-3,-5,-2,0,-5,-12
11:01:09:399431,2,-21,-3,-5,-2,0,-5,-12
11:01:09:400275,1,-4,8,3,-2,-1,-1,-16
11:01:09:414462,-4,4,-20,-6,-1,-1,0,11
11:01:09:415264,-4,4,-20,-6,-1,-1,0,11
11:01:09:421241,-2,10,2,4,0,0,0,-1
11:01:09:428769,-4,31,-15,-5,1,-4,-4,-32
11:01:09:436491,-4,31,-15,-5,1,-4,-4,-32
11:01:09:443750,-12,0,1,-7,-1,-2,-15,-91
11:01:09:451846,-2,6,10,7,3,1,-4,-23
11:01:09:453088,-2,6,10,7,3,1,-4,-23
11:01:09:458692,-4,9,-53,-5,-7,-4,-2,-42
11:01:09:474654,9,-13,24,-3,1,0,0,38
11:01:09:475305,9,-13,24,-3,1,0,0,38
11:01:09:481555,1,21,15,-2,-1,0,6,83
11:01:09:488698,-8,25,-9,2,2,1,5,26
11:01:09:496525,-8,25,-9,2,2,1,5,26
11:01:09:503905,12,5,21,3,-3,-2,-5,9
11:01:09:511775,-2,22,-1,-2,1,2,5,-20
11:01:09:519468,-2,22,-1,-2,1,2,5,-20
11:01:09:520326,5,5,41,3,-3,-3,-3,-10
11:01:09:534893,2,-34,-17,-1,-1,0,5,32
11:01:09:542047,2,-34,-17,-1,-1,0,5,32
11:01:09:542961,-8,-32,-94,-11,0,0,4,18
11:01:09:548821,-5,12,0,0,-1,0,3,-10
11:01:09:556324,-5,12,0,0,-1,0,3,-10
11:01:09:563797,6,2,54,7,3,2,-5,-37
11:01:09:571233,-7,-14,-15,-6,-3,-2,-2,18
11:01:09:579487,-7,-14,-15,-6,-3,-2,-2,18
11:01:09:580242,-19,-1,-17,-8,-5,-5,2,30
11:01:09:594632,2,13,12,4,-2,-1,-2,-20
11:01:09:595460,2,13,12,4,-2,-1,-2,-20
11:01:09:601290,6,-22,-10,0,2,-1,4,24
11:01:09:608675,4,2,9,-1,1,0,-4,10
11:01:09:616397,4,2,9,-1,1,0,-4,10
11:01:09:623829,0,-22,4,3,1,1,-2,-17
11:01:09:631285,0,-9,0,-2,-5,-5,-2,-1
11:01:09:639394,0,-9,0,-2,-5,-5,-2,-1
11:01:09:640207,4,15,7,-2,-1,-1,-3,-8
11:01:09:654390,1,-2,6,4,2,1,0,-11
11:01:09:655207,1,-2,6,4,2,1,0,-11
11:01:09:661227,0,-3,-8,-2,-4,1,4,22
11:01:09:668773,-2,-11,16,4,1,0,-3,-1
11:01:09:676309,-2,-11,16,4,1,0,-3,-1
11:01:09:683702,-4,5,19,4,-1,-2,7,43
11:01:09:691286,-5,-13,-5,-6,-1,-1,-2,-2
11:01:09:699392,-5,-13,-5,-6,-1,-1,-2,-2
11:01:09:700289,-6,-5,-1,1,0,-2,3,16
11:01:09:714488,-1,1,-3,-4,-3,-5,-2,-5
11:01:09:715208,-1,1,-3,-4,-3,-5,-2,-5
11:01:09:729398,3,1,1,0,5,9,5,-23
11:01:09:730282,-23,-3,-4,-3,-1,-2,-5,-16
11:01:09:736332,-23,-3,-4,-3,-1,-2,-5,-16
11:01:09:743847,-2,3,-4,-6,-7,-8,-6,-24
11:01:09:759341,7,11,-4,-10,-7,-3,6,19
11:01:09:760201,7,11,-4,-10,-7,-3,6,19
11:01:09:766319,-1,-4,2,6,10,4,-3,-7
11:01:09:774528,6,4,5,2,-4,-3,-3,-4
11:01:09:775325,6,4,5,2,-4,-3,-3,-4
11:01:09:781388,1,-5,-1,2,-3,-1,-5,-11
11:01:09:797341,5,-15,-10,-5,-3,-2,-2,5
11:01:09:797702,5,-15,-10,-5,-3,-2,-2,5
11:01:09:803723,3,-26,-12,-1,2,0,-2,-1
11:01:09:811870,-4,21,7,18,2,4,-3,-3
11:01:09:812748,-4,21,7,18,2,4,-3,-3
11:01:09:826259,3,8,-6,-7,-10,-5,-3,-5
11:01:09:834356,7,6,-1,-3,-2,-1,0,-5
11:01:09:835246,7,6,-1,-3,-2,-1,0,-5
11:01:09:841284,1,13,5,0,-1,-3,-4,-10
11:01:09:856959,0,-4,-1,1,0,-1,0,1
11:01:09:857758,0,-4,-1,1,0,-1,0,1
11:01:09:863717,-3,-1,3,-6,0,-1,-2,1
11:01:09:871793,-1,-5,-1,-2,0,-3,-1,-4
11:01:09:872748,-1,-5,-1,-2,0,-3,-1,-4
11:01:09:886229,-4,10,2,-1,-2,0,-2,-7
11:01:09:894433,1,-17,-4,-2,3,1,-1,-4
11:01:09:895323,1,-17,-4,-2,3,1,-1,-4
11:01:09:901296,0,13,2,3,-6,-5,-2,-1
11:01:09:916885,-1,-1,-1,-11,-6,0,-2,-5
11:01:09:917734,-1,-1,-1,-11,-6,0,-2,-5
11:01:09:923867,3,4,-2,4,9,2,2,13
11:01:09:931936,10,5,5,3,-2,-2,-2,-2
11:01:09:932799,10,5,5,3,-2,-2,-2,-2
11:01:09:946183,-6,2,-4,-4,-4,-2,-2,-8
11:01:09:954627,3,8,1,-1,-1,-2,1,6
11:01:09:955401,3,8,1,-1,-1,-2,1,6
11:01:09:961278,-8,-1,-4,1,0,0,1,0
11:01:09:976957,0,10,1,8,0,-1,-1,-4
11:01:09:977837,0,10,1,8,0,-1,-1,-4
11:01:09:983799,2,1,5,12,0,-1,-1,-2
11:01:09:992100,0,-2,-4,0,0,-1,-2,0
11:01:09:992932,0,-2,-4,0,0,-1,-2,0
11:01:10:6359,-5,2,7,-7,-4,-4,-1,-5
11:01:10:14685,2,2,3,0,0,-1,0,2
11:01:10:15300,2,2,3,0,0,-1,0,2
11:01:10:21268,11,-13,-7,-7,-4,-1,-3,4
11:01:10:37115,-3,-12,-7,-5,0,0,-2,2
11:01:10:37802,-3,-12,-7,-5,0,0,-2,2
11:01:10:43660,5,2,1,0,0,-1,-2,-3
11:01:10:52047,4,-8,-5,-4,-3,-2,-2,1
11:01:10:52823,4,-8,-5,-4,-3,-2,-2,1
11:01:10:66273,-2,4,-2,-3,-8,-2,-2,4
11:01:10:74636,1,5,1,-1,2,1,0,1
11:01:10:75331,1,5,1,-1,2,1,0,1
11:01:10:81307,-7,-13,-1,-2,-2,-1,-1,-5
11:01:10:96997,-5,3,-1,-1,0,-1,-1,-2
11:01:10:97788,-5,3,-1,-1,0,-1,-1,-2
11:01:10:103838,1,-2,-8,-4,-5,-6,-1,-2
11:01:10:119578,1,-2,-8,-4,-5,-6,-1,-2
11:01:10:120326,-1,-10,0,0,7,-1,-1,-1
11:01:10:126373,-6,2,-1,-3,-1,4,0,-2
11:01:10:134660,-6,2,-1,-3,-1,4,0,-2
11:01:10:135437,-4,-5,-5,-7,-10,-4,-1,-1
11:01:10:141317,5,-3,-3,-1,0,0,4,13
11:01:10:157339,5,-3,-3,-1,0,0,4,13
11:01:10:157636,-24,-7,-2,-1,-1,-1,-6,-17
11:01:10:163643,2,-12,-1,0,-1,-2,1,8
11:01:10:179764,2,-12,-1,0,-1,-2,1,8
11:01:10:180184,5,-11,0,-2,-2,-2,-5,-6
11:01:10:186549,0,0,-3,-7,-2,-2,-1,-5
11:01:10:194725,0,0,-3,-7,-2,-2,-1,-5
11:01:10:195329,1,7,-1,0,0,0,0,2
11:01:10:201258,1,-6,0,2,1,-1,-2,-4
11:01:10:217015,1,-6,0,2,1,-1,-2,-4
11:01:10:217804,0,6,0,-1,-1,0,-4,-3
11:01:10:223786,-6,6,0,2,2,-1,-2,-6
11:01:10:239354,-6,6,0,2,2,-1,-2,-6
11:01:10:240294,5,4,7,36,2,-1,1,5
11:01:10:246555,-12,-14,-3,-13,-6,-1,-2,-12
11:01:10:254455,-12,-14,-3,-13,-6,-1,-2,-12
11:01:10:255464,-3,0,0,-4,-1,-3,0,3
11:01:10:261397,4,6,0,4,2,0,2,1
11:01:10:285049,4,6,0,4,2,0,2,1
11:01:10:285976,-16,6,1,1,-3,-3,-4,-3
11:01:10:286796,-7,1,-4,-6,-2,-1,-2,-4
11:01:10:299451,-7,1,-4,-6,-2,-1,-2,-4
11:01:10:300292,-1,-13,-6,-11,-4,-2,2,-5
11:01:10:306277,2,4,-1,-1,1,0,-4,-4
11:01:10:314472,2,4,-1,-1,1,0,-4,-4
11:01:10:315298,1,3,0,-8,-1,2,2,3
11:01:10:321312,6,-1,1,2,-3,-3,-1,0
11:01:10:337026,6,-1,1,2,-3,-3,-1,0
11:01:10:337829,5,-3,-2,-4,5,3,0,0
11:01:10:343769,3,6,1,0,-4,-3,-3,-1
11:01:10:351312,3,6,1,0,-4,-3,-3,-1
11:01:10:358854,-6,-1,2,1,-3,2,1,1
11:01:10:366330,-1,6,-7,-1,4,0,6,17
11:01:10:374489,-1,6,-7,-1,4,0,6,17
11:01:10:375278,-18,4,-7,-6,0,-2,-13,-17
11:01:10:381251,-22,-9,3,24,-1,-2,-2,-4
11:01:10:397432,-22,-9,3,24,-1,-2,-2,-4
11:01:10:398223,-14,1,-3,-11,-5,-2,-1,-2
11:01:10:403694,4,3,2,0,1,-1,-2,-1
11:01:10:411288,4,3,2,0,1,-1,-2,-1
11:01:10:418724,15,0,0,-2,-1,-2,1,2
11:01:10:426247,-4,-5,-3,-8,-1,1,0,-5
11:01:10:434403,-4,-5,-3,-8,-1,1,0,-5
11:01:10:435234,2,-6,-3,2,-2,1,-1,4
11:01:10:448906,46,14,2,-7,-3,-2,0,-2
11:01:10:457417,46,14,2,-7,-3,-2,0,-2
11:01:10:457659,-2,-13,0,6,2,1,1,0
11:01:10:463646,4,1,3,8,-5,-2,-2,-6
11:01:10:471302,4,1,3,8,-5,-2,-2,-6
11:01:10:478717,11,-11,-23,-66,-5,-3,4,8
11:01:10:486436,-20,2,4,6,3,1,-2,-2
11:01:10:494486,-20,2,4,6,3,1,-2,-2
11:01:10:495159,5,6,11,27,-2,-5,1,2
11:01:10:501267,-12,-8,-6,-10,-1,3,1,-3
11:01:10:516930,-12,-8,-6,-10,-1,3,1,-3
11:01:10:517667,-2,2,1,7,1,0,-1,-1
11:01:10:523825,-12,-5,-1,-8,-2,-6,-3,-2
11:01:10:531314,-12,-5,-1,-8,-2,-6,-3,-2
11:01:10:538734,4,3,3,7,3,3,2,2
11:01:10:546239,1,-3,-3,-4,-4,-2,-6,-3
11:01:10:554433,1,-3,-3,-4,-4,-2,-6,-3
11:01:10:555233,26,-1,2,4,-1,-3,0,-2
11:01:10:561262,-8,0,-1,0,-2,-3,-1,3
11:01:10:576959,-8,0,-1,0,-2,-3,-1,3
11:01:10:577737,-36,3,-3,-4,-2,-1,-2,-1
11:01:10:583610,6,1,-6,-24,-3,-2,-1,1
11:01:10:591738,6,1,-6,-24,-3,-2,-1,1
11:01:10:598742,-21,-4,-9,-32,-5,-2,1,0
11:01:10:606429,-9,-5,2,18,8,1,-3,-2
11:01:10:622612,-9,-5,2,18,8,1,-3,-2
11:01:10:623328,9,-2,3,13,-8,-1,-2,-3
11:01:10:624206,0,-2,-3,-6,2,0,1,-4
11:01:10:637280,0,-2,-3,-6,2,0,1,-4
11:01:10:637705,12,5,5,17,1,0,-1,0
11:01:10:643686,14,-3,-9,-23,-3,-1,0,-3
11:01:10:651345,14,-3,-9,-23,-3,-1,0,-3
11:01:10:658681,-4,-2,3,1,0,2,1,4
11:01:10:675024,-6,0,2,16,2,1,-3,-1
11:01:10:675835,-6,0,2,16,2,1,-3,-1
11:01:10:676683,12,4,3,-6,-1,-2,-3,0
11:01:10:681340,-2,0,3,16,1,0,-1,0
11:01:10:697024,-2,0,3,16,1,0,-1,0
11:01:10:697719,-8,-4,1,10,2,-1,-1,-1
11:01:10:703889,-4,-2,-5,-17,-5,-3,-2,-3
11:01:10:711368,-4,-2,-5,-17,-5,-3,-2,-3
11:01:10:719036,11,0,-2,6,0,-3,-2,-1
11:01:10:726309,-11,-2,-1,4,0,-2,-1,1
11:01:10:734648,-11,-2,-1,4,0,-2,-1,1
11:01:10:735447,6,5,5,9,3,2,-3,-1
11:01:10:749183,5,2,8,8,-4,-2,0,-1
11:01:10:756932,5,2,8,8,-4,-2,0,-1
11:01:10:757804,-14,-4,1,-2,-5,-5,-3,-5
11:01:10:763736,21,-3,-4,0,9,6,2,-1
11:01:10:771324,21,-3,-4,0,9,6,2,-1
11:01:10:779181,-6,0,0,8,-2,-2,0,-2
11:01:10:786585,-44,-6,-5,-15,-6,-3,-5,-8
11:01:10:794594,-44,-6,-5,-15,-6,-3,-5,-8
11:01:10:795310,1,-4,-2,0,0,-2,0,0
11:01:10:808788,12,1,4,13,-1,-2,1,3
11:01:10:817136,12,1,4,13,-1,-2,1,3
11:01:10:817853,-15,-4,-6,-15,-4,-3,-2,-4
11:01:10:823716,-16,1,-3,-12,-2,0,-3,-1
11:01:10:831379,-16,1,-3,-12,-2,0,-3,-1
11:01:10:838824,-4,-1,-3,1,0,-1,0,-1
11:01:10:846330,-4,0,0,1,-2,0,3,3
11:01:10:854709,-4,0,0,1,-2,0,3,3
11:01:10:855307,17,2,-1,-3,0,0,1,-2
11:01:10:868698,-8,-2,0,4,-1,-4,-1,-5
11:01:10:877064,-8,-2,0,4,-1,-4,-1,-5
11:01:10:877659,26,14,3,-4,1,2,-9,-6
11:01:10:883816,-55,-33,-8,-9,-5,-2,-2,-9
11:01:10:891418,-55,-33,-8,-9,-5,-2,-2,-9
11:01:10:898659,-2,-2,4,18,0,-1,-2,1
11:01:10:906186,42,20,10,24,0,0,0,3
11:01:10:914719,42,20,10,24,0,0,0,3
11:01:10:915324,-22,-7,-3,1,6,-1,0,-1
11:01:10:928913,3,-3,-3,-30,-3,-2,-1,2
11:01:10:937491,3,-3,-3,-30,-3,-2,-1,2
11:01:10:937806,-1,1,-4,-5,-2,0,3,0
11:01:10:943856,12,1,-3,-3,0,-3,-3,-3
11:01:10:951758,12,1,-3,-3,0,-3,-3,-3
11:01:10:958864,17,-2,0,-4,2,2,0,-1
11:01:10:966354,-10,-2,-3,2,-2,-2,-1,-1
11:01:10:974480,-10,-2,-3,2,-2,-2,-1,-1
11:01:10:975274,-6,0,-6,-14,-6,-2,0,0
11:01:10:988790,-14,2,0,2,-1,-1,-2,-3
11:01:10:997014,-14,2,0,2,-1,-1,-2,-3
11:01:10:997635,-21,-8,-1,-2,-2,0,0,-2
11:01:11:4013,14,4,4,17,2,2,1,2
11:01:11:11354,14,4,4,17,2,2,1,2
11:01:11:18823,-16,-6,-12,-45,-4,-3,-2,0
11:01:11:26310,4,0,1,2,-1,-1,-1,-1
11:01:11:34322,4,0,1,2,-1,-1,-1,-1
11:01:11:41320,-3,-2,2,13,-1,-2,2,1
11:01:11:49102,12,-1,-2,-4,2,-1,-2,0
11:01:11:57075,12,-1,-2,-4,2,-1,-2,0
11:01:11:57687,6,4,4,8,5,4,0,-2
11:01:11:63754,3,-7,1,0,-4,-1,-3,-2
11:01:11:71364,3,-7,1,0,-4,-1,-3,-2
11:01:11:78596,0,-2,13,-1,-3,-2,-3,0
11:01:11:86398,3,0,-7,-4,-1,-2,0,-2
11:01:11:94615,3,0,-7,-4,-1,-2,0,-2
11:01:11:95392,-59,-7,-8,0,-2,-3,-3,-6
11:01:11:108848,-17,0,3,-3,-3,1,-1,0
11:01:11:117077,-17,0,3,-3,-3,1,-1,0
11:01:11:117862,25,1,-2,4,-3,-3,-1,0
11:01:11:124077,2,0,10,0,2,1,2,-3
11:01:11:131619,2,0,10,0,2,1,2,-3
11:01:11:138868,10,-3,5,1,-3,-2,-1,0
11:01:11:146366,8,0,40,-2,-5,-4,-2,3
11:01:11:154515,8,0,40,-2,-5,-4,-2,3
11:01:11:155473,7,1,-9,2,3,-1,0,-9
11:01:11:168832,2,7,11,4,2,1,0,-1
