Time,EMG1,EMG2,EMG3,EMG4,EMG5,EMG6,EMG7,EMG8
11:06:32:181623,1,-3,-2,-3,-11,-9,-17,-1
11:06:32:187289,-9,-1,0,0,0,1,-2,-3
11:06:32:203489,-12,-3,-2,0,-1,-1,-2,-1
11:06:32:203724,-12,-3,-2,0,-1,-1,-2,-1
11:06:32:210023,1,-2,-1,-2,-4,-2,-1,-3
11:06:32:217688,14,2,0,0,-2,-2,0,-1
11:06:32:225398,14,2,0,0,-2,-2,0,-1
11:06:32:232655,-12,-4,-1,1,0,-1,-1,-1
11:06:32:240879,3,-4,-2,-2,-2,-2,-1,-2
11:06:32:241378,3,-4,-2,-2,-2,-2,-1,-2
11:06:32:247828,11,-1,-1,0,-1,0,-2,2
11:06:32:271670,-2,-1,-2,-2,-1,-1,-2,0
11:06:32:271921,-2,-1,-2,-2,-1,-1,-2,0
11:06:32:272854,-5,0,-2,-2,-1,-2,-2,-2
11:06:32:277910,-1,-1,-1,0,-2,-1,-2,-3
11:06:32:284832,-1,-1,-1,0,-2,-1,-2,-3
11:06:32:292894,6,1,-2,-3,-2,-2,1,0
11:06:32:300400,-4,-2,0,1,1,-1,0,-1
11:06:32:301290,-4,-2,0,1,1,-1,0,-1
11:06:32:307460,2,-1,-1,1,0,0,-1,0
11:06:32:323489,-13,-1,0,-1,0,-1,-2,-4
11:06:32:323703,-13,-1,0,-1,0,-1,-2,-4
11:06:32:329807,10,4,0,-1,-1,-2,-1,0
11:06:32:337834,1,-4,-2,-1,-1,-3,-2,-2
11:06:32:345408,1,-4,-2,-1,-1,-3,-2,-2
11:06:32:352758,7,0,0,-1,-2,-1,1,0
11:06:32:360647,-1,-1,0,-1,0,-2,0,-1
11:06:32:361491,-1,-1,0,-1,0,-2,0,-1
11:06:32:375365,-5,0,-1,0,0,-1,-1,0
11:06:32:382946,-9,-1,-1,-1,-2,0,0,0
11:06:32:384192,-9,-1,-1,-1,-2,0,0,0
11:06:32:389915,-7,0,-2,-2,-1,-2,1,-1
11:06:32:397266,-1,5,0,-2,0,-2,-3,-2
11:06:32:404872,-1,5,0,-2,0,-2,-3,-2
11:06:32:412333,-23,-3,-1,-1,-2,-1,-1,-4
11:06:32:420511,-23,-3,-1,-1,-2,-1,-1,-4
11:06:32:421444,2,-8,-1,-1,-3,-2,0,-1
11:06:32:427650,9,-1,1,-1,-1,-2,-1,1
11:06:32:443103,9,-1,1,-1,-1,-2,-1,1
11:06:32:443953,0,2,0,-2,0,0,0,1
11:06:32:449872,6,-4,-4,-1,-1,0,-3,-1
11:06:32:465539,6,-4,-4,-1,-1,0,-3,-1
11:06:32:466461,3,-4,-1,-2,-2,0,-1,-2
11:06:32:472459,-4,2,-1,-1,0,-2,-2,-4
11:06:32:480957,-4,2,-1,-1,0,-2,-2,-4
11:06:32:481472,-1,2,-2,0,0,0,1,0
11:06:32:487228,-1,-2,-2,-2,0,-3,-2,-1
11:06:32:503080,-1,-2,-2,-2,0,-3,-2,-1
11:06:32:504035,0,1,-1,-1,0,0,2,0
11:06:32:509956,4,1,-1,-1,-2,-1,0,-1
11:06:32:525491,4,1,-1,-1,-2,-1,0,-1
11:06:32:526305,5,2,0,0,-2,-4,-2,-3
11:06:32:532283,-1,-6,-2,-1,-2,0,-1,-1
11:06:32:540586,-1,-6,-2,-1,-2,0,-1,-1
11:06:32:541380,0,1,-2,-2,-3,-1,0,-2
11:06:32:547466,-2,-6,0,0,-2,-1,-1,0
11:06:32:563071,-2,-6,0,0,-2,-1,-1,0
11:06:32:563988,-16,-5,-1,-1,-1,-2,-4,-2
11:06:32:569847,10,2,0,1,1,1,-3,-4
11:06:32:585621,10,2,0,1,1,1,-3,-4
11:06:32:586253,7,4,-2,-1,0,-1,-1,0
11:06:32:592661,-7,-2,-1,-1,-1,-2,0,-2
11:06:32:600863,-7,-2,-1,-1,-1,-2,0,-2
11:06:32:601358,2,0,-1,-1,-2,0,-1,0
11:06:32:614756,2,-1,-1,-2,-2,-3,0,1
11:06:32:623115,2,-1,-1,-2,-2,-3,0,1
11:06:32:623923,4,-1,2,0,0,-1,-1,0
11:06:32:637493,-8,-2,-1,-2,-2,-1,-2,-2
11:06:32:645706,-8,-2,-1,-2,-2,-1,-2,-2
11:06:32:646379,-1,-3,0,0,0,-1,1,-3
11:06:32:652784,-1,0,0,-2,2,-2,-1,0
11:06:32:660579,-1,0,0,-2,2,-2,-1,0
11:06:32:661387,1,-2,-2,-1,-3,-1,0,-1
11:06:32:674906,3,4,-1,0,-1,0,-1,-3
11:06:32:683127,3,4,-1,0,-1,0,-1,-3
11:06:32:683834,-24,-6,-3,-2,-2,1,-2,-3
11:06:32:689874,0,0,-2,-1,-2,-2,-3,1
11:06:32:705619,0,0,-2,-1,-2,-2,-3,1
11:06:32:706352,10,3,-2,-2,-1,-1,-1,-1
11:06:32:712837,-3,-2,-1,-1,-1,2,0,-2
11:06:32:720505,-3,-2,-1,-1,-1,2,0,-2
11:06:32:721576,3,0,1,0,0,-3,-1,-2
11:06:32:735136,-16,-2,-2,-1,0,-3,-2,-3
11:06:32:743279,-16,-2,-2,-1,0,-3,-2,-3
11:06:32:743897,-4,-3,-2,0,-3,1,-1,-1
11:06:32:750026,6,-1,0,0,-1,-1,-2,0
11:06:32:765655,6,-1,0,0,-1,-1,-2,0
11:06:32:766477,-2,-1,-1,-2,0,-2,-1,-2
11:06:32:772374,-3,-2,-1,0,0,2,0,-1
11:06:32:780561,-3,-2,-1,0,0,2,0,-1
11:06:32:781394,20,4,-2,-7,-3,-1,-1,2
11:06:32:794964,-14,-4,-1,-2,0,-4,-3,-4
11:06:32:803060,-14,-4,-1,-2,0,-4,-3,-4
11:06:32:803941,-1,-6,0,1,2,1,0,1
11:06:32:810360,4,1,0,-1,-1,-3,0,0
11:06:32:825785,4,1,0,-1,-1,-3,0,0
11:06:32:826573,-5,-1,-1,0,-2,-2,-1,0
11:06:32:832425,0,1,-1,1,0,-1,0,-1
11:06:32:840547,0,1,-1,1,0,-1,0,-1
11:06:32:841435,4,2,0,-1,-1,-2,0,-1
11:06:32:854915,-2,0,0,-1,-1,-1,1,0
11:06:32:863209,-2,0,0,-1,-1,-1,1,0
11:06:32:864007,-4,-1,-2,-3,0,0,-4,-3
11:06:32:870020,-3,-1,-3,-4,-5,-2,-1,-2
11:06:32:885662,-3,-1,-3,-4,-5,-2,-1,-2
11:06:32:886472,-4,0,1,1,0,-2,-1,-2
11:06:32:892396,3,-1,-5,-2,3,2,0,0
11:06:32:900571,3,-1,-5,-2,3,2,0,0
11:06:32:901506,-1,-3,-3,-1,-5,-2,0,-2
11:06:32:914824,-1,0,6,1,1,-2,-1,-1
11:06:32:923220,-1,0,6,1,1,-2,-1,-1
11:06:32:924024,-4,-1,6,-2,0,-2,0,-1
11:06:32:929997,2,1,8,2,-2,-3,-1,0
11:06:32:945641,2,1,8,2,-2,-3,-1,0
11:06:32:946563,-1,-1,10,5,1,-2,-1,-2
11:06:32:952439,-3,1,4,-1,-6,-4,-1,2
11:06:32:960578,-3,1,4,-1,-6,-4,-1,2
11:06:32:961532,-3,-8,-33,-9,1,1,-2,-11
11:06:32:975113,-4,-9,14,11,3,1,-2,-4
11:06:32:983107,-4,-9,14,11,3,1,-2,-4
11:06:32:983735,-7,-22,-15,-4,-12,-2,-3,0
11:06:32:989724,4,1,-5,0,14,3,-4,14
11:06:33:5627,4,1,-5,0,14,3,-4,14
11:06:33:6473,2,6,-11,-18,-13,-6,-1,9
11:06:33:21368,-2,2,6,13,-3,2,2,12
11:06:33:22148,-2,2,6,13,-3,2,2,12
11:06:33:22947,6,5,48,10,6,-3,0,-1
11:06:33:34926,0,-5,-35,-14,-8,3,0,-3
11:06:33:43128,0,-5,-35,-14,-8,3,0,-3
11:06:33:44008,-2,11,36,7,2,3,-5,-10
11:06:33:50030,-6,-11,-7,-6,-6,-6,-7,-6
11:06:33:65772,-6,-11,-7,-6,-6,-6,-7,-6
11:06:33:66422,2,1,-4,-1,1,0,4,3
11:06:33:72395,5,-6,3,-3,-1,0,2,-42
11:06:33:80583,5,-6,3,-3,-1,0,2,-42
11:06:33:81388,1,3,-7,1,3,-1,-1,7
11:06:33:94904,-1,8,24,1,0,-2,3,3
11:06:33:103066,-1,8,24,1,0,-2,3,3
11:06:33:103890,-4,-19,-28,0,-1,0,-5,-6
11:06:33:109775,-2,-2,14,-8,-3,-3,-1,35
11:06:33:125525,-2,-2,14,-8,-3,-3,-1,35
11:06:33:126364,-2,8,-24,0,3,3,1,-1
11:06:33:132341,0,0,-18,-6,-3,-6,-3,-7
11:06:33:140417,0,0,-18,-6,-3,-6,-3,-7
11:06:33:141291,-2,0,13,0,1,0,-2,-2
11:06:33:154909,5,8,-3,1,2,1,3,2
11:06:33:163213,5,8,-3,1,2,1,3,2
11:06:33:163941,-4,-4,-10,-3,-3,-2,2,-1
11:06:33:169911,-5,-5,-6,-3,-4,0,-2,2
11:06:33:185677,-5,-5,-6,-3,-4,0,-2,2
11:06:33:186526,-3,-2,-6,-2,-3,-3,-1,1
11:06:33:192428,-1,4,-1,4,4,0,-4,3
11:06:33:200689,-1,4,-1,4,4,0,-4,3
11:06:33:201555,2,2,4,-1,0,0,-1,4
11:06:33:214780,-4,-7,-10,-2,-2,-2,-2,-11
11:06:33:223144,-4,-7,-10,-2,-2,-2,-2,-11
11:06:33:224164,-2,-1,10,1,-1,0,1,-7
11:06:33:230005,-2,-3,2,-6,-1,0,0,-5
11:06:33:245675,-2,-3,2,-6,-1,0,0,-5
11:06:33:246453,1,-2,-21,-2,-2,-1,2,-1
11:06:33:252545,2,2,3,4,-2,-1,-1,23
11:06:33:260667,2,2,3,4,-2,-1,-1,23
11:06:33:261554,-3,-2,8,2,-3,-2,2,9
11:06:33:275143,5,3,-21,-5,-1,-1,-9,-47
11:06:33:283196,5,3,-21,-5,-1,-1,-9,-47
11:06:33:283997,-3,0,19,1,-1,0,-3,22
11:06:33:289786,-1,1,4,-1,-3,1,3,10
11:06:33:305540,-1,1,4,-1,-3,1,3,10
11:06:33:306472,6,-6,-18,-3,1,0,-1,-1
11:06:33:312277,0,0,10,-1,-4,-3,-1,0
11:06:33:321045,0,0,10,-1,-4,-3,-1,0
11:06:33:321305,0,5,-5,-2,-2,-2,-2,-7
11:06:33:334785,-2,2,-3,-2,-3,-1,2,8
11:06:33:343149,-2,2,-3,-2,-3,-1,2,8
11:06:33:343936,0,7,3,-2,-5,-2,-4,-5
11:06:33:349921,-2,-11,-5,-1,1,-2,3,29
11:06:33:365673,-2,-11,-5,-1,1,-2,3,29
11:06:33:366405,-8,4,7,0,0,0,-2,-21
11:06:33:372373,3,2,5,-2,-1,-2,-8,-38
11:06:33:380835,3,2,5,-2,-1,-2,-8,-38
11:06:33:381353,-9,-1,1,1,1,-1,-1,-8
11:06:33:394768,-8,-5,-2,-2,-1,-1,1,-6
11:06:33:403006,-8,-5,-2,-2,-1,-1,1,-6
11:06:33:403756,6,-3,-4,-2,-3,-1,-1,24
11:06:33:409771,-6,-8,-8,-2,-3,-2,0,14
11:06:33:425522,-6,-8,-8,-2,-3,-2,0,14
11:06:33:426315,8,-8,0,-1,2,3,0,15
11:06:33:432214,-9,-7,-3,1,-1,2,1,-9
11:06:33:440579,-9,-7,-3,1,-1,2,1,-9
11:06:33:441386,8,-4,-3,-1,-4,-4,-8,-4
11:06:33:454876,-13,8,2,1,4,2,7,31
11:06:33:463033,-13,8,2,1,4,2,7,31
11:06:33:463852,-17,-3,-1,-2,-5,-2,-5,-30
11:06:33:469826,5,-2,-3,-2,-3,-3,0,-3
11:06:33:485457,5,-2,-3,-2,-3,-3,0,-3
11:06:33:486310,-4,5,-3,-1,-1,-3,0,7
11:06:33:492749,21,14,1,1,1,0,1,12
11:06:33:500590,21,14,1,1,1,0,1,12
11:06:33:501322,-1,16,0,-1,-1,-3,-7,-40
11:06:33:514822,-7,-2,-3,-1,-2,-2,-4,-13
11:06:33:523109,-7,-2,-3,-1,-2,-2,-4,-13
11:06:33:523996,4,4,0,2,1,1,2,-18
11:06:33:529922,1,0,1,0,0,1,-5,-18
11:06:33:545415,1,0,1,0,0,1,-5,-18
11:06:33:546360,-1,-6,-2,-3,-1,-1,2,2
11:06:33:552375,-4,-3,1,0,-1,-1,-2,2
11:06:33:559940,-4,-3,1,0,-1,-1,-2,2
11:06:33:567334,7,-12,0,-1,-2,1,0,8
11:06:33:574839,-5,-16,-5,-3,-2,-3,-1,-5
11:06:33:582998,-5,-16,-5,-3,-2,-3,-1,-5
11:06:33:583912,-2,-2,-2,-3,1,-2,1,4
11:06:33:597404,-2,4,-1,-1,-1,0,-1,-7
11:06:33:605605,-2,4,-1,-1,-1,0,-1,-7
11:06:33:606398,1,-1,2,2,1,1,1,11
11:06:33:612400,1,3,-1,-2,-2,0,0,-3
11:06:33:619971,1,3,-1,-2,-2,0,0,-3
11:06:33:627359,-2,1,-2,-3,0,1,0,3
11:06:33:634835,-6,-9,-3,4,1,0,-4,-5
11:06:33:643018,-6,-9,-3,4,1,0,-4,-5
11:06:33:644040,-17,-23,-5,-2,-2,0,-1,-1
11:06:33:657446,2,-2,1,1,-2,-2,-1,0
11:06:33:665655,2,-2,1,1,-2,-2,-1,0
11:06:33:666467,25,6,3,2,-1,-3,0,1
11:06:33:672498,0,-3,0,-3,0,-2,-1,-1
11:06:33:688084,0,-3,0,-3,0,-2,-1,-1
11:06:33:688743,-3,4,-2,-3,-1,0,0,2
11:06:33:694839,3,2,0,-1,-2,-2,-2,0
11:06:33:702989,3,2,0,-1,-2,-2,-2,0
11:06:33:703802,1,3,-1,-1,0,-2,-4,0
11:06:33:717675,-13,-2,-2,-1,-1,-3,-7,-1
11:06:33:725635,-13,-2,-2,-1,-1,-3,-7,-1
11:06:33:726246,-4,12,2,2,2,1,-1,-5
11:06:33:732283,-2,8,0,-1,-4,-5,-2,-1
11:06:33:739945,-2,8,0,-1,-4,-5,-2,-1
11:06:33:747615,-12,8,-9,-2,-4,-3,-7,-8
11:06:33:755193,1,-13,-3,0,6,3,2,-2
11:06:33:763241,1,-13,-3,0,6,3,2,-2
11:06:33:764033,10,31,13,-1,-2,-4,16,51
11:06:33:777364,3,-3,3,0,-2,4,8,18
11:06:33:785806,3,-3,3,0,-2,4,8,18
11:06:33:786500,-7,13,15,4,2,2,1,24
11:06:33:792516,-6,-32,-12,-2,0,1,1,0
11:06:33:800197,-6,-32,-12,-2,0,1,1,0
11:06:33:807295,-4,-9,-10,-2,-1,2,0,-27
11:06:33:814762,0,7,-2,-2,-1,-4,-5,-21
11:06:33:823029,0,7,-2,-2,-1,-4,-5,-21
11:06:33:823920,-9,-15,-6,-1,-4,-3,-4,-5
11:06:33:837362,20,10,4,0,0,2,1,16
11:06:33:845869,20,10,4,0,0,2,1,16
11:06:33:846396,18,-9,-6,-3,-2,-3,-3,-14
11:06:33:852708,-2,-10,-1,-8,-11,-6,-6,-21
11:06:33:859919,-2,-10,-1,-8,-11,-6,-6,-21
11:06:33:867409,10,-12,6,3,-1,-1,-3,-9
11:06:33:874791,24,17,15,2,3,2,2,4
11:06:33:883119,24,17,15,2,3,2,2,4
11:06:33:883891,17,-5,-8,7,-4,-4,-8,-1
11:06:33:897370,9,14,-2,32,7,6,12,9
11:06:33:905686,9,14,-2,32,7,6,12,9
11:06:33:906412,44,-17,11,26,-4,-4,-10,-40
11:06:33:912467,-24,-35,-33,-91,-6,-6,-15,-23
11:06:33:920019,-24,-35,-33,-91,-6,-6,-15,-23
11:06:33:927657,20,9,-17,-61,-2,-6,-6,45
11:06:33:934817,-21,15,13,41,-2,3,8,23
11:06:33:943151,-21,15,13,41,-2,3,8,23
11:06:33:944014,-33,-5,-10,-28,2,5,11,19
11:06:33:957488,-10,1,-9,-27,-4,-7,37,-5
11:06:33:965635,-10,1,-9,-27,-4,-7,37,-5
11:06:33:966465,-22,7,2,-12,-8,-3,-14,-17
11:06:33:972793,1,7,1,30,5,-11,-16,-1
11:06:33:979892,1,7,1,30,5,-11,-16,-1
11:06:33:987477,-46,-18,29,2,-9,9,31,6
11:06:33:994898,28,0,-13,38,8,13,-9,-16
11:06:34:3346,28,0,-13,38,8,13,-9,-16
11:06:34:3771,4,7,1,45,10,1,-6,-3
11:06:34:17541,20,21,-16,-25,-12,1,29,8
11:06:34:25575,20,21,-16,-25,-12,1,29,8
11:06:34:26402,43,12,4,20,0,-8,-13,2
11:06:34:32367,-21,-25,4,4,-13,-16,-12,3
11:06:34:39819,-21,-25,4,4,-13,-16,-12,3
11:06:34:47388,-5,4,-20,36,14,3,30,-30
11:06:34:54768,8,5,-19,-64,-10,0,-9,5
11:06:34:63034,8,5,-19,-64,-10,0,-9,5
11:06:34:63956,-5,-8,-14,8,4,-8,-30,-11
11:06:34:77370,-46,-1,23,39,-6,-4,-8,-12
11:06:34:85665,-46,-1,23,39,-6,-4,-8,-12
11:06:34:86420,7,7,-33,-39,-7,5,9,9
11:06:34:92359,-57,-22,7,1,3,0,-18,-21
11:06:34:100234,-57,-22,7,1,3,0,-18,-21
11:06:34:107372,-10,-9,21,26,-6,-6,19,4
11:06:34:114863,31,13,12,6,13,7,-14,7
11:06:34:122844,31,13,12,6,13,7,-14,7
11:06:34:129945,-14,-14,-28,-30,-6,7,14,-6
11:06:34:137365,5,12,14,4,-4,5,-10,-3
11:06:34:145645,5,12,14,4,-4,5,-10,-3
11:06:34:146379,31,4,6,10,2,-3,-9,4
11:06:34:152422,24,9,-11,-56,14,3,-2,2
11:06:34:159967,24,9,-11,-56,14,3,-2,2
11:06:34:167362,22,-6,-7,-9,-9,2,-15,-10
11:06:34:174875,9,-7,4,6,-7,2,10,8
11:06:34:183140,9,-7,4,6,-7,2,10,8
11:06:34:183863,-45,-7,-15,-32,3,0,14,5
11:06:34:197448,7,0,19,42,-10,-17,5,3
11:06:34:205520,7,0,19,42,-10,-17,5,3
11:06:34:206454,3,-6,20,41,11,7,-7,-11
11:06:34:220564,-39,-5,-1,13,-6,3,-23,1
11:06:34:221384,-39,-5,-1,13,-6,3,-23,1
11:06:34:227492,-44,-10,2,39,5,-9,-29,-6
11:06:34:235086,14,4,-6,31,-3,-10,-24,-7
11:06:34:243112,14,4,-6,31,-3,-10,-24,-7
11:06:34:244221,-3,-2,-7,-36,-3,5,12,6
11:06:34:257654,-7,-2,-19,-23,6,7,-5,-6
11:06:34:265702,-7,-2,-19,-23,6,7,-5,-6
11:06:34:266474,-6,13,13,0,-7,-8,-4,-12
11:06:34:272511,3,-2,-19,-26,-4,0,10,1
11:06:34:280049,3,-2,-19,-26,-4,0,10,1
11:06:34:287434,21,-2,13,-17,-13,-3,-11,-4
11:06:34:294770,-6,-5,20,26,4,6,23,1
11:06:34:303001,-6,-5,20,26,4,6,23,1
11:06:34:304236,0,7,11,4,-2,-11,34,3
11:06:34:317468,-3,-16,-29,-52,-6,-1,-6,-13
11:06:34:325514,-3,-16,-29,-52,-6,-1,-6,-13
11:06:34:326271,2,-13,-30,-31,8,6,-16,-4
11:06:34:332361,-17,7,11,17,3,-3,-17,-15
11:06:34:339951,-17,7,11,17,3,-3,-17,-15
11:06:34:347338,-14,-7,-4,-2,-12,-5,-7,0
11:06:34:354742,23,-2,3,2,0,4,12,2
11:06:34:363152,23,-2,3,2,0,4,12,2
11:06:34:363856,17,7,-1,-19,1,2,-13,4
11:06:34:377255,-27,-27,12,26,3,10,-14,-4
11:06:34:385518,-27,-27,12,26,3,10,-14,-4
11:06:34:386478,-12,3,1,5,-8,-4,47,20
11:06:34:392279,4,6,-1,0,2,-9,-7,2
11:06:34:399797,4,6,-1,0,2,-9,-7,2
11:06:34:407377,-2,-6,5,10,2,2,-25,-7
11:06:34:423744,28,8,-8,11,0,-6,19,8
11:06:34:424436,28,8,-8,11,0,-6,19,8
11:06:34:425279,3,-1,-6,-3,5,3,-2,0
11:06:34:437332,-6,6,15,2,-6,-9,-5,0
11:06:34:445503,-6,6,15,2,-6,-9,-5,0
11:06:34:446281,0,0,13,22,-1,-11,-16,-9
11:06:34:452380,9,-3,-35,-18,-8,-1,-8,5
11:06:34:459975,9,-3,-35,-18,-8,-1,-8,5
11:06:34:467394,15,9,9,21,5,-5,8,3
11:06:34:474846,10,6,6,13,-3,4,45,7
11:06:34:490514,10,6,6,13,-3,4,45,7
11:06:34:491346,-5,0,-18,-39,12,5,-13,3
11:06:34:497995,-17,-5,6,9,0,-1,-23,-8
11:06:34:498835,-17,-5,6,9,0,-1,-23,-8
11:06:34:505044,-2,-2,-25,-28,-17,3,-3,-5
11:06:34:520854,21,4,-8,-11,4,-9,-4,1
11:06:34:521427,21,4,-8,-11,4,-9,-4,1
11:06:34:527366,-26,-6,11,14,-2,6,13,11
11:06:34:534840,2,2,10,8,-2,9,14,5
11:06:34:542500,2,2,10,8,-2,9,14,5
11:06:34:549923,-1,-3,0,1,1,-8,-19,-5
11:06:34:558129,8,1,4,-25,0,-1,-2,-4
11:06:34:558923,8,1,4,-25,0,-1,-2,-4
11:06:34:564860,-4,0,15,20,1,2,-2,-1
11:06:34:580603,15,6,-1,-4,-5,-8,25,-3
11:06:34:581405,15,6,-1,-4,-5,-8,25,-3
11:06:34:587324,11,-6,2,2,2,6,-19,-6
11:06:34:594766,-15,1,-1,9,-7,-10,-35,-5
11:06:34:602447,-15,1,-1,9,-7,-10,-35,-5
11:06:34:609777,9,-9,15,24,11,-2,11,-2
11:06:34:617741,2,-3,-7,-8,-5,-9,-23,-3
11:06:34:625670,2,-3,-7,-8,-5,-9,-23,-3
11:06:34:626452,7,12,-1,-32,-14,-9,0,-5
11:06:34:640591,-4,-11,2,36,7,-3,-9,-12
11:06:34:641489,-4,-11,2,36,7,-3,-9,-12
11:06:34:647329,7,3,-1,18,1,3,27,0
11:06:34:654775,0,2,-11,-25,-4,2,1,4
11:06:34:662435,0,2,-11,-25,-4,2,1,4
11:06:34:669862,-30,-10,-8,-5,2,4,-8,-5
11:06:34:677783,28,5,19,22,-10,3,-3,21
11:06:34:685692,28,5,19,22,-10,3,-3,21
11:06:34:686335,-28,-3,-30,-100,-5,-4,-10,0
11:06:34:700944,22,-10,-32,-73,0,-2,3,-4
11:06:34:701239,22,-10,-32,-73,0,-2,3,-4
11:06:34:707467,9,2,9,33,5,-4,-10,-2
11:06:34:714856,-45,-12,-5,-2,-2,31,75,10
11:06:34:730648,-45,-12,-5,-2,-2,31,75,10
11:06:34:731496,25,8,11,33,-2,0,7,7
11:06:34:738181,-10,4,-52,-27,10,-9,-28,-9
11:06:34:738827,-10,4,-52,-27,10,-9,-28,-9
11:06:34:744886,3,-4,10,19,-7,-2,-2,-6
11:06:34:760594,-30,-5,-27,-78,-4,-3,-49,-13
11:06:34:761767,-30,-5,-27,-78,-4,-3,-49,-13
11:06:34:767503,-10,4,9,-1,-1,-3,-13,14
11:06:34:774844,-10,-13,17,47,-4,-8,-7,3
11:06:34:782522,-10,-13,17,47,-4,-8,-7,3
11:06:34:790041,-1,1,-1,18,1,-5,2,-2
11:06:34:798114,-14,-6,35,62,2,3,10,5
11:06:34:798827,-14,-6,35,62,2,3,10,5
11:06:34:804857,14,4,5,24,5,9,52,2
11:06:34:821006,19,12,-6,-40,4,-7,6,-1
11:06:34:821229,19,12,-6,-40,4,-7,6,-1
11:06:34:827338,17,6,-20,2,0,5,-10,4
11:06:34:835260,24,12,27,19,-6,-2,-4,-12
11:06:34:842413,24,12,27,19,-6,-2,-4,-12
11:06:34:850174,8,-1,17,-19,3,-5,-44,-7
11:06:34:866500,9,5,27,25,-1,1,1,5
11:06:34:866942,9,5,27,25,-1,1,1,5
11:06:34:867778,-21,-14,-3,-18,-5,-11,-19,-10
11:06:34:880606,-6,-1,-3,2,6,-3,-7,-9
11:06:34:881397,-6,-1,-3,2,6,-3,-7,-9
11:06:34:887275,-31,-1,4,28,2,-5,19,25
11:06:34:894785,-64,-12,4,-9,-8,3,17,-3
11:06:34:902495,-64,-12,4,-9,-8,3,17,-3
11:06:34:909878,5,-8,-13,-1,13,2,-2,-13
11:06:34:918102,20,-2,6,23,-2,1,17,19
11:06:34:918812,20,-2,6,23,-2,1,17,19
11:06:34:924714,-20,-12,3,-50,-16,-4,1,-5
11:06:34:940728,15,4,3,25,7,-1,-9,-8
11:06:34:941438,15,4,3,25,7,-1,-9,-8
11:06:34:947569,-9,-7,-11,2,-6,-1,24,0
11:06:34:954950,-27,-11,-5,-6,0,0,10,3
11:06:34:962619,-27,-11,-5,-6,0,0,10,3
11:06:34:969949,5,1,-28,8,-5,-3,-23,-8
11:06:34:978174,9,-2,-17,-17,-3,-2,8,8
11:06:34:978789,9,-2,-17,-17,-3,-2,8,8
11:06:34:985025,-9,-2,-1,7,6,12,4,-14
11:06:35:994,10,7,2,-15,-5,-12,-46,-12
11:06:35:1231,10,7,2,-15,-5,-12,-46,-12
11:06:35:7440,4,-3,-1,-8,-9,-8,4,0
11:06:35:14741,-19,-12,1,24,-1,-11,-7,7
11:06:35:22713,-19,-12,1,24,-1,-11,-7,7
11:06:35:29893,9,12,31,22,8,6,34,9
11:06:35:38141,12,4,15,12,0,-4,-13,-10
11:06:35:38967,12,4,15,12,0,-4,-13,-10
11:06:35:44887,34,18,-4,-24,-3,4,9,21
11:06:35:60838,-4,-7,-14,-23,2,2,-5,-10
11:06:35:61402,-4,-7,-14,-23,2,2,-5,-10
11:06:35:67284,6,-6,-44,15,6,4,-11,-5
11:06:35:74894,-7,-2,8,-15,0,-4,-10,-4
11:06:35:82814,-7,-2,8,-15,0,-4,-10,-4
11:06:35:89783,8,6,8,14,-1,3,14,7
11:06:35:98067,-8,-7,-1,16,-3,-8,-16,-10
11:06:35:98792,-8,-7,-1,16,-3,-8,-16,-10
11:06:35:104899,4,0,-5,-22,-7,-4,-17,-4
11:06:35:120598,-8,-3,16,8,1,6,4,5
11:06:35:121469,-8,-3,16,8,1,6,4,5
11:06:35:127568,-24,-7,-28,-11,-9,-7,3,1
11:06:35:134805,9,0,-14,-8,-3,-3,15,-3
11:06:35:142662,9,0,-14,-8,-3,-3,15,-3
11:06:35:150034,-7,-5,18,-22,-5,-8,-23,-15
11:06:35:158377,-43,-17,-12,31,2,-4,4,0
11:06:35:158729,-43,-17,-12,31,2,-4,4,0
11:06:35:164836,-29,-23,1,-23,1,3,-15,-7
11:06:35:180653,32,12,2,-7,-4,-1,13,2
11:06:35:181463,32,12,2,-7,-4,-1,13,2
11:06:35:187411,-7,1,-4,17,-5,2,22,4
11:06:35:194775,1,3,-12,13,5,7,5,1
11:06:35:202455,1,3,-12,13,5,7,5,1
11:06:35:209798,-44,-16,9,22,-2,-7,-27,-1
11:06:35:218032,18,18,12,15,-4,-2,32,5
11:06:35:218851,18,18,12,15,-4,-2,32,5
11:06:35:224721,62,15,28,10,0,4,10,-1
11:06:35:240558,-7,-3,0,4,3,1,-3,-6
11:06:35:241623,-7,-3,0,4,3,1,-3,-6
11:06:35:247492,-16,-2,7,27,3,-5,-4,4
11:06:35:254914,25,2,-15,-39,3,12,-2,-4
11:06:35:262660,25,2,-15,-39,3,12,-2,-4
11:06:35:269928,-7,-10,-7,1,-4,-8,-9,-11
11:06:35:278291,-5,-1,0,20,1,0,4,1
11:06:35:278814,-5,-1,0,20,1,0,4,1
11:06:35:284837,-18,-2,4,12,-5,-6,17,8
11:06:35:300574,18,1,-1,-3,0,-5,-23,-3
11:06:35:301239,18,1,-1,-3,0,-5,-23,-3
11:06:35:307331,9,3,19,3,1,3,1,-8
11:06:35:314796,3,-4,-7,-28,0,-5,1,2
11:06:35:322489,3,-4,-7,-28,0,-5,1,2
11:06:35:330180,-3,-1,-10,10,6,18,14,-1
11:06:35:338154,14,-1,-14,0,-3,-4,-61,-10
11:06:35:338908,14,-1,-14,0,-3,-4,-61,-10
11:06:35:345148,1,3,10,30,-3,-4,-9,4
11:06:35:361078,-54,-14,-23,-71,-2,0,-5,1
11:06:35:361297,-54,-14,-23,-71,-2,0,-5,1
11:06:35:367411,7,6,-8,-19,-2,-11,-25,-7
11:06:35:375021,-5,-8,8,0,-10,1,33,8
11:06:35:382406,-5,-8,8,0,-10,1,33,8
11:06:35:389743,-38,-20,3,10,16,2,-7,-9
11:06:35:398082,-2,8,8,49,-2,3,12,3
11:06:35:398691,-2,8,8,49,-2,3,12,3
11:06:35:404841,37,9,-1,-20,-6,-2,-5,-1
11:06:35:420557,17,-2,-1,6,3,9,15,1
11:06:35:421379,17,-2,-1,6,3,9,15,1
11:06:35:427305,-8,1,4,-11,-6,-4,-12,-3
11:06:35:443020,-12,0,6,12,4,0,9,-14
11:06:35:443858,-12,0,6,12,4,0,9,-14
11:06:35:449755,3,2,-1,4,0,0,34,10
11:06:35:458034,-1,6,-5,-4,-3,5,33,7
11:06:35:458831,-1,6,-5,-4,-3,5,33,7
11:06:35:472181,11,6,0,8,1,6,3,-2
11:06:35:480507,5,6,16,7,-6,5,7,-1
11:06:35:481376,5,6,16,7,-6,5,7,-1
11:06:35:487368,-17,-4,-19,-23,5,-5,-6,-11
11:06:35:503111,-4,-5,-15,-17,-3,-14,-19,-9
11:06:35:503853,-4,-5,-15,-17,-3,-14,-19,-9
11:06:35:509803,3,0,-10,-11,-12,-6,3,-2
11:06:35:518030,-12,-10,15,-64,-3,-2,-29,-2
11:06:35:518979,-12,-10,15,-64,-3,-2,-29,-2
11:06:35:532254,-7,-13,-21,-4,11,-2,-39,-8
11:06:35:540448,7,-11,-6,20,-4,-1,8,0
11:06:35:541321,7,-11,-6,20,-4,-1,8,0
11:06:35:547314,46,12,-3,-56,-4,5,31,3
11:06:35:563055,6,-3,-1,0,0,-10,-22,-6
11:06:35:564058,6,-3,-1,0,0,-10,-22,-6
11:06:35:569859,-33,5,4,5,-2,-8,-24,-6
11:06:35:578089,-28,1,2,4,2,0,4,-1
11:06:35:578756,-28,1,2,4,2,0,4,-1
11:06:35:592267,16,4,15,19,-2,9,24,7
11:06:35:600568,-1,9,-3,-6,3,2,-8,-3
11:06:35:601325,-1,9,-3,-6,3,2,-8,-3
11:06:35:607425,0,-16,-1,17,-3,-1,-10,-8
11:06:35:623001,-26,-6,-5,1,-4,-4,3,5
11:06:35:623832,-26,-6,-5,1,-4,-4,3,5
11:06:35:629837,-25,-6,-22,-73,-3,2,5,-4
11:06:35:638041,22,6,-19,-45,-1,4,7,7
11:06:35:638811,22,6,-19,-45,-1,4,7,7
11:06:35:652305,16,2,1,-6,-4,-5,-23,-3
11:06:35:660535,9,-3,11,16,-1,2,1,-5
11:06:35:661327,9,-3,11,16,-1,2,1,-5
11:06:35:667270,-25,-6,-3,16,2,-2,13,10
11:06:35:682962,-25,-6,-3,16,2,-2,13,10
11:06:35:684089,10,-1,-2,21,-2,6,27,6
11:06:35:689896,32,8,-34,-84,4,6,-2,-5
11:06:35:698059,32,8,-34,-84,4,6,-2,-5
11:06:35:698758,-27,-3,9,14,3,7,-8,-2
11:06:35:712426,-8,-3,12,61,-5,-8,-5,-4
11:06:35:720756,-8,-3,12,61,-5,-8,-5,-4
11:06:35:721453,46,15,-3,7,-3,-10,-6,-8
11:06:35:727344,-19,-8,-4,39,0,8,5,-3
