Time,EMG1,EMG2,EMG3,EMG4,EMG5,EMG6,EMG7,EMG8
11:07:17:358244,6,-2,-1,-3,-5,-2,0,1
11:07:17:366476,6,-2,-1,-3,-5,-2,0,1
11:07:17:367105,0,0,-2,0,-1,0,-1,-2
11:07:17:382476,-5,-4,-2,0,0,-1,-1,0
11:07:17:388825,-5,-4,-2,0,0,-1,-1,0
11:07:17:389753,3,1,0,0,-3,-1,0,-1
11:07:17:396067,2,-2,2,0,0,-3,-1,0
11:07:17:403710,2,-2,2,0,0,-3,-1,0
11:07:17:410732,2,-3,-1,-2,-1,-2,-1,-4
11:07:17:418595,6,2,-1,0,-1,1,1,-2
11:07:17:426282,6,2,-1,0,-1,1,1,-2
11:07:17:427149,-5,0,-1,-2,-2,0,0,0
11:07:17:441843,-11,-3,0,-1,0,-1,-4,-1
11:07:17:442054,-11,-3,0,-1,0,-1,-4,-1
11:07:17:448203,3,-1,-2,-3,0,0,-2,0
11:07:17:463791,11,6,-2,-1,-1,1,-1,-1
11:07:17:464575,11,6,-2,-1,-1,1,-1,-1
11:07:17:470536,0,-4,0,0,0,0,0,2
11:07:17:478010,-1,-2,-1,-2,0,-2,-2,-3
11:07:17:485544,-1,-2,-1,-2,0,-2,-2,-3
11:07:17:493006,-2,3,-2,-1,-3,-2,-1,0
11:07:17:501214,-3,-3,-1,-2,-1,0,0,-1
11:07:17:502199,-3,-3,-1,-2,-1,0,0,-1
11:07:17:508790,-5,-4,0,-2,-2,-2,-4,-3
11:07:17:523743,-1,-1,-1,0,0,-2,0,-1
11:07:17:524462,-1,-1,-1,0,0,-2,0,-1
11:07:17:530641,1,3,-1,-3,-2,-2,0,-2
11:07:17:538261,-8,-1,1,-1,-1,-1,-1,-3
11:07:17:546153,-8,-1,1,-1,-1,-1,-1,-3
11:07:17:553253,-5,-5,-3,-1,-1,0,-1,0
11:07:17:561360,1,0,-3,-2,-1,0,-1,-1
11:07:17:562433,1,0,-3,-2,-1,0,-1,-1
11:07:17:568701,-4,-2,1,0,-1,1,-2,-2
11:07:17:584374,3,1,0,0,-1,-2,-1,0
11:07:17:584581,3,1,0,0,-1,-2,-1,0
11:07:17:590667,-4,-7,-6,-1,-1,-1,-1,-1
11:07:17:598161,-4,-3,-2,-1,-3,0,-4,-1
11:07:17:606229,-4,-3,-2,-1,-3,0,-4,-1
11:07:17:613513,-17,0,1,0,0,-1,0,-1
11:07:17:621884,-1,-6,-3,-3,-2,-2,-2,-1
11:07:17:622123,-1,-6,-3,-3,-2,-2,-2,-1
11:07:17:636155,4,3,2,-1,-1,-1,-3,-2
11:07:17:644392,-2,-2,-1,-1,1,-1,0,-1
11:07:17:644606,-2,-2,-1,-1,1,-1,0,-1
11:07:17:650863,2,-2,-2,-2,-1,-1,-3,-1
11:07:17:666352,-8,-3,-3,-1,-1,-3,1,-2
11:07:17:667459,-8,-3,-3,-1,-1,-3,1,-2
11:07:17:673200,-3,0,-4,0,1,-1,-3,-2
11:07:17:681534,4,0,0,0,-3,-1,0,1
11:07:17:682209,4,0,0,0,-3,-1,0,1
11:07:17:688172,-6,-1,-1,-1,-4,-2,-2,-1
11:07:17:704297,-4,0,-1,0,1,-1,1,-1
11:07:17:704518,-4,0,-1,0,1,-1,1,-1
11:07:17:710936,8,-1,1,1,0,-3,0,0
11:07:17:718627,2,-1,0,-1,-1,-1,-2,-1
11:07:17:734261,2,-1,0,-1,-1,-1,-2,-1
11:07:17:734504,1,-1,1,-2,-2,-1,0,-1
11:07:17:741387,-9,-3,-2,-2,-2,1,-2,-1
11:07:17:742140,-9,-3,-2,-2,-2,1,-2,-1
11:07:17:748047,3,1,0,0,0,0,1,1
11:07:17:763711,7,2,-1,0,-1,0,-2,0
11:07:17:764542,7,2,-1,0,-1,0,-2,0
11:07:17:770903,6,1,0,-1,0,-2,0,1
11:07:17:778040,10,2,0,-3,-1,-1,-1,0
11:07:17:785711,10,2,0,-3,-1,-1,-1,0
11:07:17:793163,-3,-1,-2,0,-1,-2,-2,0
11:07:17:801616,2,6,-1,-1,0,-2,-3,-3
11:07:17:802190,2,6,-1,-1,0,-2,-3,-3
11:07:17:808153,3,-2,-3,-2,0,-1,-1,0
11:07:17:823894,-10,-4,-1,-2,-3,0,1,-2
11:07:17:824718,-10,-4,-1,-2,-3,0,1,-2
11:07:17:830725,-9,-2,-1,1,0,0,0,2
11:07:17:838484,-3,-3,-3,0,-12,-5,-2,-1
11:07:17:845647,-3,-3,-3,0,-12,-5,-2,-1
11:07:17:853100,-3,0,0,-2,-4,2,-2,-2
11:07:17:861376,-5,-3,2,11,5,-3,1,-1
11:07:17:862228,-5,-3,2,11,5,-3,1,-1
11:07:17:875809,4,1,0,5,11,-1,0,-2
11:07:17:883915,3,-3,-2,-11,-1,-2,-2,1
11:07:17:884724,3,-3,-2,-11,-1,-2,-2,1
11:07:17:890711,-5,-1,-3,-11,-12,-4,-1,-5
11:07:17:898217,1,1,1,3,1,1,0,-1
11:07:17:905768,1,1,1,3,1,1,0,-1
11:07:17:913081,-3,0,-3,-2,0,-1,-1,-1
11:07:17:921281,-7,-2,-2,-3,-1,0,-1,-1
11:07:17:922257,-7,-2,-2,-3,-1,0,-1,-1
11:07:17:928173,3,1,1,1,1,0,0,-1
11:07:17:943884,5,1,3,0,-1,0,-4,-3
11:07:17:944745,5,1,3,0,-1,0,-4,-3
11:07:17:950644,1,-3,1,1,-2,-2,-1,0
11:07:17:958200,8,1,-3,-2,-1,0,-3,-1
11:07:17:965752,8,1,-3,-2,-1,0,-3,-1
11:07:17:973159,-9,-1,-2,-2,-3,-2,-2,-5
11:07:17:981249,-1,-2,-1,2,1,0,0,0
11:07:17:982177,-1,-2,-1,2,1,0,0,0
11:07:17:988194,3,-2,-2,-1,-4,0,0,1
11:07:18:3749,-12,-3,-2,-3,0,-2,1,-1
11:07:18:4744,-12,-3,-2,-3,0,-2,1,-1
11:07:18:10680,3,-4,-5,-3,-2,-1,-1,-3
11:07:18:18209,-1,-1,1,-1,-1,-2,0,1
11:07:18:25919,-1,-1,1,-1,-1,-2,0,1
11:07:18:33119,-4,2,2,2,0,0,-3,0
11:07:18:41330,0,-3,-3,-2,0,0,0,-3
11:07:18:42225,0,-3,-3,-2,0,0,0,-3
11:07:18:48214,6,-1,1,-1,0,-2,1,0
11:07:18:63713,-5,-5,-3,-5,-2,-2,-3,0
11:07:18:64693,-5,-5,-3,-5,-2,-2,-3,0
11:07:18:71012,6,-1,-10,-6,-2,-3,-2,0
11:07:18:78232,-18,3,-1,-6,-1,0,-1,-1
11:07:18:85700,-18,3,-1,-6,-1,0,-1,-1
11:07:18:93071,-5,-1,2,1,-2,0,-1,1
11:07:18:101686,6,2,1,0,-1,-1,-1,1
11:07:18:102186,6,2,1,0,-1,-1,-1,1
11:07:18:108081,-11,-10,-7,-1,-1,-2,0,-1
11:07:18:123784,10,-1,0,-5,-1,-1,0,0
11:07:18:124728,10,-1,0,-5,-1,-1,0,0
11:07:18:130710,4,8,4,2,1,0,-2,-1
11:07:18:138218,-2,-7,0,4,-2,-1,0,-3
11:07:18:145871,-2,-7,0,4,-2,-1,0,-3
11:07:18:153152,-2,-3,0,4,-1,1,0,0
11:07:18:161623,0,0,-2,0,-2,-3,-2,-2
11:07:18:162156,0,0,-2,0,-2,-3,-2,-2
11:07:18:168245,-7,-1,0,-1,-1,1,0,-1
11:07:18:183940,-7,-1,0,-1,-1,1,0,-1
11:07:18:184750,-5,-8,-5,-1,-1,-3,-5,-3
11:07:18:190670,12,-1,-2,-3,-1,-4,-1,-1
11:07:18:206296,12,-1,-2,-3,-1,-4,-1,-1
11:07:18:207185,-4,-2,-2,1,-1,-1,-4,-4
11:07:18:213185,-2,-2,3,-1,0,0,-2,-1
11:07:18:221431,-2,-2,3,-1,0,0,-2,-1
11:07:18:222335,4,4,2,0,-1,-2,1,0
11:07:18:228290,-9,-2,-2,-1,-1,-1,0,-1
11:07:18:244027,-9,-2,-2,-1,-1,-1,0,-1
11:07:18:244809,-24,-10,-5,-3,-2,-1,-3,-1
11:07:18:250801,7,-2,0,0,-2,-3,-1,-2
11:07:18:266493,7,-2,0,0,-2,-3,-1,-2
11:07:18:267215,8,1,1,1,0,0,-1,1
11:07:18:273159,-1,2,0,-3,0,-3,-3,0
11:07:18:281278,-1,2,0,-3,0,-3,-3,0
11:07:18:282084,0,2,3,2,-2,0,0,0
11:07:18:288238,6,1,-1,-2,-2,1,0,0
11:07:18:303849,6,1,-1,-2,-2,1,0,0
11:07:18:304777,-1,-2,1,-4,-3,-2,1,-2
11:07:18:311040,-8,-2,-3,1,-1,-1,-1,-2
11:07:18:326695,-8,-2,-3,1,-1,-1,-1,-2
11:07:18:327209,3,-2,-2,0,0,0,-1,-1
11:07:18:333762,0,1,1,-2,-3,-2,-2,0
11:07:18:341388,0,1,1,-2,-3,-2,-2,0
11:07:18:342306,11,4,-2,-1,0,1,0,0
11:07:18:348289,-19,-7,-2,-4,0,-1,-1,-3
11:07:18:363996,-19,-7,-2,-4,0,-1,-1,-3
11:07:18:364715,-9,1,-2,1,1,1,0,-2
11:07:18:370749,-9,-7,-5,0,-2,-1,-2,-3
11:07:18:386365,-9,-7,-5,0,-2,-1,-2,-3
11:07:18:387191,3,1,0,1,-1,0,1,0
11:07:18:393193,14,5,1,0,-2,-3,-4,1
11:07:18:401319,14,5,1,0,-2,-3,-4,1
11:07:18:402215,2,-2,-2,-3,-2,-1,0,-1
11:07:18:415722,-23,-4,1,1,-1,-1,-1,-2
11:07:18:423852,-23,-4,1,1,-1,-1,-1,-2
11:07:18:424692,6,0,-4,-5,-2,-2,-1,2
11:07:18:430738,-1,0,0,-1,1,0,-2,-1
11:07:18:446460,-1,0,0,-1,1,0,-2,-1
11:07:18:447140,2,-1,1,3,-2,-1,0,-1
11:07:18:453193,7,-1,-2,-2,-2,-1,2,1
11:07:18:461688,7,-1,-2,-2,-2,-1,2,1
11:07:18:462163,-6,-8,-1,-4,-1,-1,-1,-4
11:07:18:475576,11,8,3,2,4,3,1,-1
11:07:18:483812,11,8,3,2,4,3,1,-1
11:07:18:484647,3,3,-2,-3,1,-1,-2,1
11:07:18:490665,2,2,3,1,0,-3,-2,-2
11:07:18:506395,2,2,3,1,0,-3,-2,-2
11:07:18:507124,-4,-2,2,-1,-3,0,-2,-1
11:07:18:513178,1,-1,-3,-5,-1,-1,-1,-2
11:07:18:521294,1,-1,-3,-5,-1,-1,-1,-2
11:07:18:522122,-7,-5,-1,5,2,-1,0,-2
11:07:18:535582,-2,-3,-3,-3,-4,-1,0,-2
11:07:18:543866,-2,-3,-3,-3,-4,-1,0,-2
11:07:18:544893,-9,0,-1,-3,-4,0,0,-1
11:07:18:550651,-7,0,-2,-2,1,0,-1,-2
11:07:18:566395,-7,0,-2,-2,1,0,-1,-2
11:07:18:567110,2,-1,-2,1,-4,-3,-1,0
11:07:18:573536,6,-1,0,-2,-2,-2,-1,2
11:07:18:581374,6,-1,0,-2,-2,-2,-1,2
11:07:18:582102,-1,0,-1,-4,-1,-3,-1,-1
11:07:18:595613,0,-8,-3,-1,-2,3,-1,0
11:07:18:603882,0,-8,-3,-1,-2,3,-1,0
11:07:18:604632,-1,-2,0,0,1,-1,-2,-1
11:07:18:610653,1,-1,-3,-2,-2,-4,0,-2
11:07:18:626328,1,-1,-3,-2,-2,-4,0,-2
11:07:18:627175,2,1,0,-1,-2,0,-1,0
11:07:18:633143,-6,-2,-2,-5,-2,0,-1,0
11:07:18:641295,-6,-2,-2,-5,-2,0,-1,0
11:07:18:642172,-2,-1,1,3,2,0,-4,-3
11:07:18:655611,7,2,-2,0,-2,-4,-5,-2
11:07:18:663808,7,2,-2,0,-2,-4,-5,-2
11:07:18:664638,-1,-3,-2,-2,-1,-1,0,-1
11:07:18:670587,2,-1,1,2,1,-2,-2,0
11:07:18:686321,2,-1,1,2,1,-2,-2,0
11:07:18:687044,3,3,-2,-4,-2,0,-2,0
11:07:18:693192,-5,-2,-3,-3,0,0,1,0
11:07:18:701363,-5,-2,-3,-3,0,0,1,0
11:07:18:702197,-3,-1,-7,-1,1,-1,-1,-1
11:07:18:715784,-2,2,13,1,1,-1,0,-4
11:07:18:724170,-2,2,13,1,1,-1,0,-4
11:07:18:724664,4,-3,-7,-1,-2,0,-1,-5
11:07:18:731032,0,-3,-3,2,-2,-1,-1,1
11:07:18:746465,0,-3,-3,2,-2,-1,-1,1
11:07:18:747166,-4,1,20,1,-8,-3,0,-12
11:07:18:753152,-2,-5,-22,-7,8,3,9,32
11:07:18:761258,-2,-5,-22,-7,8,3,9,32
11:07:18:762182,1,4,-20,-4,-2,-1,-2,-46
11:07:18:775887,-2,8,22,2,-11,0,1,-1
11:07:18:783853,-2,8,22,2,-11,0,1,-1
11:07:18:784634,-3,-3,-36,0,12,-2,-3,-32
11:07:18:790528,-12,-4,-2,-2,-4,-1,-4,-18
11:07:18:806348,-12,-4,-2,-2,-4,-1,-4,-18
11:07:18:807215,2,-1,29,1,-3,1,2,-6
11:07:18:813191,0,-3,-46,-8,-3,-3,-1,-8
11:07:18:821194,0,-3,-46,-8,-3,-3,-1,-8
11:07:18:822208,-1,5,11,2,6,3,3,30
11:07:18:835572,-2,-8,41,8,-3,-3,-2,3
11:07:18:843921,-2,-8,41,8,-3,-3,-2,3
11:07:18:844715,-3,1,12,-3,-4,-2,0,20
11:07:18:850692,4,2,-14,-3,1,-1,-4,-7
11:07:18:866370,4,2,-14,-3,1,-1,-4,-7
11:07:18:867224,0,-1,0,-2,-4,-3,0,31
11:07:18:873246,-1,-2,-27,-2,4,0,-1,1
11:07:18:881250,-1,-2,-27,-2,4,0,-1,1
11:07:18:882204,0,2,49,8,-2,-3,-2,-1
11:07:18:895571,7,2,0,-1,-1,-1,0,8
11:07:18:903752,7,2,0,-1,-1,-1,0,8
11:07:18:904707,-3,-9,-17,-3,-5,4,3,14
11:07:18:910769,0,0,24,3,-2,-3,-6,-10
11:07:18:926377,0,0,24,3,-2,-3,-6,-10
11:07:18:927172,-3,-5,6,-3,-1,-5,-3,0
11:07:18:933247,1,2,-12,-5,1,-6,-8,-46
11:07:18:941312,1,2,-12,-5,1,-6,-8,-46
11:07:18:942197,3,3,-9,-1,-2,0,-2,-11
11:07:18:955715,-1,-3,9,-2,0,-2,-1,18
11:07:18:963853,-1,-3,9,-2,0,-2,-1,18
11:07:18:964684,-4,1,-9,-1,0,-2,4,-3
11:07:18:970814,-4,-4,-17,-3,-3,10,-1,-7
11:07:18:986384,-4,-4,-17,-3,-3,10,-1,-7
11:07:18:987176,-2,0,-4,-5,-2,0,-9,7
11:07:18:993214,-4,-5,15,4,-2,-4,-3,-23
11:07:19:1340,-4,-5,15,4,-2,-4,-3,-23
11:07:19:2061,-1,-2,-15,-4,-2,-5,-4,-3
11:07:19:15728,-1,0,-5,-2,1,1,1,9
11:07:19:23905,-1,0,-5,-2,1,1,1,9
11:07:19:24742,1,-1,-4,-2,-1,-2,1,-2
11:07:19:30686,-2,-3,-1,1,-2,3,-5,16
11:07:19:46496,-2,-3,-1,1,-2,3,-5,16
11:07:19:47176,5,0,0,1,-1,-2,-7,18
11:07:19:53172,5,-1,0,-2,-3,-6,-9,-27
11:07:19:68708,5,-1,0,-2,-3,-6,-9,-27
11:07:19:69627,-3,-1,-9,3,4,1,1,-15
11:07:19:75605,-1,0,4,0,0,-3,6,10
11:07:19:83855,-1,0,4,0,0,-3,6,10
11:07:19:84654,4,-2,-15,-2,-2,-1,0,2
11:07:19:90631,0,-2,-3,-2,-4,1,2,3
11:07:19:106301,0,-2,-3,-2,-4,1,2,3
11:07:19:107159,0,0,-6,3,-1,0,0,3
11:07:19:113156,-3,3,1,-2,0,-3,-1,-31
11:07:19:121400,-3,3,1,-2,0,-3,-1,-31
11:07:19:122296,-2,-5,15,-2,-2,-1,1,0
11:07:19:135526,0,6,7,1,-1,-1,1,14
11:07:19:143939,0,6,7,1,-1,-1,1,14
11:07:19:144749,-8,-7,-45,-9,-1,-1,0,-7
11:07:19:150710,-8,-7,8,3,0,0,3,8
11:07:19:166592,-8,-7,8,3,0,0,3,8
11:07:19:167195,-3,0,0,-1,-1,-1,-2,6
11:07:19:173222,1,2,-8,-3,-2,-1,-11,-5
11:07:19:181211,1,2,-8,-3,-2,-1,-11,-5
11:07:19:188460,-2,-2,8,-2,-2,-2,0,-9
11:07:19:195664,4,5,3,0,-1,-1,2,7
11:07:19:204041,4,5,3,0,-1,-1,2,7
11:07:19:204830,0,0,4,-1,1,-1,-2,12
11:07:19:210818,2,3,-13,-6,-2,-1,2,10
11:07:19:226487,2,3,-13,-6,-2,-1,2,10
11:07:19:227213,6,3,12,1,-1,1,0,-2
11:07:19:233169,4,2,7,5,1,-1,-1,1
11:07:19:241356,4,2,7,5,1,-1,-1,1
11:07:19:242245,-2,-6,-3,-4,-1,0,-7,-3
11:07:19:255579,4,1,-17,-1,5,6,15,-5
11:07:19:263767,4,1,-17,-1,5,6,15,-5
11:07:19:264566,2,-4,8,1,-1,4,7,-7
11:07:19:270912,-11,-12,-10,-5,-2,3,0,1
11:07:19:286635,-11,-12,-10,-5,-2,3,0,1
11:07:19:287252,0,-2,-20,-8,2,4,1,-13
11:07:19:293214,-3,-13,10,5,0,-4,-7,0
11:07:19:301301,-3,-13,10,5,0,-4,-7,0
11:07:19:302540,11,-4,2,2,-3,-5,1,-5
11:07:19:315695,-4,6,-4,-4,-4,-5,-8,7
11:07:19:323988,-4,6,-4,-4,-4,-5,-8,7
11:07:19:324790,-4,0,6,3,1,30,26,22
11:07:19:338298,-8,-3,2,1,-1,7,8,9
11:07:19:346489,-8,-3,2,1,-1,7,8,9
11:07:19:347136,0,5,2,1,-1,-15,-14,-6
11:07:19:353507,-2,-1,-1,-1,-1,-4,-2,-1
11:07:19:360868,-2,-1,-1,-1,-1,-4,-2,-1
11:07:19:368277,-9,4,3,0,-1,-7,-6,-6
11:07:19:375798,6,-1,2,-2,0,-8,-9,-8
11:07:19:384026,6,-1,2,-2,0,-8,-9,-8
11:07:19:384760,2,4,-1,-2,-3,-1,1,-4
11:07:19:398135,-2,1,-7,-4,-2,-1,-1,-8
11:07:19:406321,-2,1,-7,-4,-2,-1,-1,-8
11:07:19:407229,3,-3,2,3,-1,-5,-6,11
11:07:19:413141,5,-1,3,2,1,0,0,8
11:07:19:420718,5,-1,3,2,1,0,0,8
11:07:19:428163,1,-3,-4,-4,-5,-8,-8,-4
11:07:19:435574,-12,-5,-1,-1,-2,-1,1,-9
11:07:19:443882,-12,-5,-1,-1,-2,-1,1,-9
11:07:19:444711,3,6,1,2,2,-2,-3,-4
11:07:19:458231,22,-1,0,-2,-1,1,4,9
11:07:19:466465,22,-1,0,-2,-1,1,4,9
11:07:19:467201,-65,-16,-3,-3,-3,-6,-10,-8
11:07:19:473559,14,11,4,0,-1,-2,-3,-8
11:07:19:480774,14,11,4,0,-1,-2,-3,-8
11:07:19:488228,9,-1,2,2,-1,0,-1,-9
11:07:19:495719,8,7,-2,0,0,2,4,4
11:07:19:503937,8,7,-2,0,0,2,4,4
11:07:19:504696,-93,-32,-8,-7,-4,-8,-3,-13
11:07:19:518237,-3,2,0,-1,-3,-6,-9,-5
11:07:19:534644,-3,2,0,-1,-3,-6,-9,-5
11:07:19:535462,19,5,-2,-3,-2,5,20,9
11:07:19:536206,-38,-13,-1,-3,-3,-6,6,11
11:07:19:540765,-38,-13,-1,-3,-3,-6,6,11
11:07:19:548242,2,-2,3,2,2,8,1,-2
11:07:19:555668,1,11,-3,-5,-1,9,-5,-3
11:07:19:563930,1,11,-3,-5,-1,9,-5,-3
11:07:19:564703,32,13,6,3,0,0,9,8
11:07:19:578079,4,1,-18,-37,7,-22,-7,19
11:07:19:586408,4,1,-18,-37,7,-22,-7,19
11:07:19:587173,-54,-22,1,7,-4,-1,-23,-8
11:07:19:593168,-18,-4,3,8,-10,10,10,5
11:07:19:600744,-18,-4,3,8,-10,10,10,5
11:07:19:608211,55,16,-9,-22,6,-6,2,9
11:07:19:615718,-43,-23,7,25,-9,-9,-2,-4
11:07:19:623895,-43,-23,7,25,-9,-9,-2,-4
11:07:19:624714,10,-1,-6,-25,-6,3,-4,-6
11:07:19:638097,24,9,-1,12,18,6,-4,0
11:07:19:646380,24,9,-1,12,18,6,-4,0
11:07:19:647165,-1,2,19,37,-4,-15,-23,-5
11:07:19:653179,13,-10,-10,-4,-11,19,15,1
11:07:19:661132,13,-10,-10,-4,-11,19,15,1
11:07:19:668190,22,16,17,3,12,15,38,-5
11:07:19:675724,-15,-14,-7,-39,-8,14,73,25
11:07:19:683880,-15,-14,-7,-39,-8,14,73,25
11:07:19:684644,22,3,-6,-14,-5,7,-12,19
11:07:19:698342,11,-1,-6,-7,4,-9,-28,-37
11:07:19:706687,11,-1,-6,-7,4,-9,-28,-37
11:07:19:707236,-8,-5,33,4,-10,-16,-37,-26
11:07:19:713230,9,-3,25,39,16,0,-14,-7
11:07:19:721068,9,-3,25,39,16,0,-14,-7
11:07:19:728265,24,5,-16,-3,8,-2,-4,-2
11:07:19:735566,14,11,-3,-15,-11,-16,-25,-5
11:07:19:759769,14,11,-3,-15,-11,-16,-25,-5
11:07:19:760370,-39,-11,-10,6,-9,-15,-42,-12
11:07:19:761173,-33,-3,-6,-46,1,-18,-63,-17
11:07:19:766218,-33,-3,-6,-46,1,-18,-63,-17
11:07:19:773760,-13,-6,-26,-58,-6,-4,-8,6
11:07:19:774911,41,9,-4,-8,3,3,34,22
11:07:19:780636,41,9,-4,-8,3,3,34,22
11:07:19:788184,-9,-3,-13,-14,-3,1,3,-4
11:07:19:795702,-9,-5,-6,4,0,3,10,4
11:07:19:803824,-9,-5,-6,4,0,3,10,4
11:07:19:804724,12,6,-2,11,6,0,17,4
11:07:19:819137,-16,-14,-4,-23,-14,-3,-26,-8
11:07:19:819696,-16,-14,-4,-23,-14,-3,-26,-8
11:07:19:825797,28,2,-22,-33,-5,-9,-45,-10
11:07:19:833191,33,11,-1,24,-4,-1,29,30
11:07:19:840788,33,11,-1,24,-4,-1,29,30
11:07:19:848209,-3,-6,12,43,8,5,-5,-10
11:07:19:855672,7,0,-10,8,-3,-3,14,-8
11:07:19:863790,7,0,-10,8,-3,-3,14,-8
11:07:19:864578,12,6,2,-14,-15,1,1,1
11:07:19:878762,-30,2,6,21,13,1,3,-10
11:07:19:879631,-30,2,6,21,13,1,3,-10
11:07:19:885646,-29,-11,-11,-22,-6,-12,-3,-1
11:07:19:893545,-12,4,9,15,-6,0,-21,3
11:07:19:900993,-12,4,9,15,-6,0,-21,3
11:07:19:908109,24,8,-2,19,-4,-7,41,0
11:07:19:924416,-33,-12,7,23,2,5,-30,-8
11:07:19:925485,-33,-12,7,23,2,5,-30,-8
11:07:19:926222,-41,-1,2,19,11,21,23,7
11:07:19:947368,-15,-7,4,11,-18,2,18,-11
11:07:19:947648,-15,-7,4,11,-18,2,18,-11
11:07:19:948590,10,-4,6,19,16,1,-10,-11
11:07:19:953010,11,2,-2,-18,-7,-4,-20,-8
11:07:19:960979,11,2,-2,-18,-7,-4,-20,-8
11:07:19:968285,20,2,-1,-11,0,0,14,2
11:07:19:975627,11,-4,15,28,5,-4,19,2
11:07:20:160,11,-4,15,28,5,-4,19,2
11:07:20:1027,37,4,-1,7,2,2,11,19
11:07:20:1796,6,1,-4,1,2,10,10,11
11:07:20:2613,6,1,-4,1,2,10,10,11
11:07:20:5673,-18,2,3,-5,-8,-14,-11,-4
11:07:20:13168,11,1,-3,-5,-1,0,2,-10
11:07:20:20638,11,1,-3,-5,-1,0,2,-10
11:07:20:28282,-7,-7,4,8,-3,-3,-6,-3
11:07:20:35582,-1,5,-1,11,-3,3,3,-8
11:07:20:43794,-1,5,-1,11,-3,3,3,-8
11:07:20:44695,-17,1,0,10,4,1,7,5
11:07:20:59197,15,3,-13,-2,10,-5,-3,-2
11:07:20:59660,15,3,-13,-2,10,-5,-3,-2
11:07:20:65751,19,1,-5,-39,-13,-2,-7,0
11:07:20:73150,-12,-4,9,12,6,-7,-67,-13
11:07:20:80770,-12,-4,9,12,6,-7,-67,-13
11:07:20:88096,-23,-1,8,12,4,14,18,11
11:07:20:95572,11,-2,-12,-29,-5,-8,-4,-3
11:07:20:103792,11,-2,-12,-29,-5,-8,-4,-3
11:07:20:104946,5,-8,-3,6,4,7,7,3
11:07:20:119214,-1,4,4,10,-4,-13,16,7
11:07:20:119593,-1,4,4,10,-4,-13,16,7
11:07:20:125817,15,-10,-26,-82,1,-3,1,2
11:07:20:133155,-34,-10,6,-4,-6,-9,-4,-7
11:07:20:140982,-34,-10,6,-4,-6,-9,-4,-7
11:07:20:148323,-12,-4,6,34,-4,4,32,12
11:07:20:155685,3,7,-3,-8,-1,-1,-1,0
11:07:20:163938,3,7,-3,-8,-1,-1,-1,0
11:07:20:164751,-4,-3,-1,16,-7,-9,-23,-16
11:07:20:178798,12,3,0,0,2,3,59,5
11:07:20:179600,12,3,0,0,2,3,59,5
11:07:20:185795,-24,-7,2,37,-1,18,5,-9
11:07:20:193496,-6,0,-5,-12,-1,12,-2,1
11:07:20:201040,-6,0,-5,-12,-1,12,-2,1
11:07:20:208214,-10,-3,-16,-70,-4,-15,-2,5
11:07:20:224597,-31,-5,-2,2,4,-4,-28,-14
11:07:20:225246,-31,-5,-2,2,4,-4,-28,-14
11:07:20:226392,12,8,12,33,-9,-10,-19,-5
11:07:20:239271,3,-6,-6,-15,-1,-3,62,15
11:07:20:239520,3,-6,-6,-15,-1,-3,62,15
11:07:20:245569,-14,-1,2,26,8,-1,-14,-10
11:07:20:253559,-3,-3,-6,-17,-9,-16,-36,-7
11:07:20:260785,-3,-3,-6,-17,-9,-16,-36,-7
11:07:20:268405,10,2,4,8,6,-13,-38,-5
11:07:20:275794,21,2,-13,-30,-4,3,12,3
11:07:20:283243,21,2,-13,-30,-4,3,12,3
11:07:20:290965,17,6,1,-9,0,3,6,-9
11:07:20:299159,-2,-9,-3,-29,-3,1,6,4
11:07:20:299653,-2,-9,-3,-29,-3,1,6,4
11:07:20:305663,8,-1,2,4,-3,-4,-6,-2
11:07:20:321660,20,1,3,16,10,5,22,-6
11:07:20:322145,20,1,3,16,10,5,22,-6
11:07:20:328087,13,0,2,3,-10,1,-7,2
11:07:20:335686,-5,-2,-9,-33,8,-3,-25,-5
11:07:20:343198,-5,-2,-9,-33,8,-3,-25,-5
11:07:20:350651,5,1,-6,-8,-3,-12,20,10
11:07:20:358830,22,1,7,19,1,13,-19,-13
11:07:20:359828,22,1,7,19,1,13,-19,-13
11:07:20:365634,-43,-11,2,8,0,3,14,-6
11:07:20:381332,-6,-4,7,16,-12,-20,-16,-5
11:07:20:382195,-6,-4,7,16,-12,-20,-16,-5
11:07:20:388249,21,-2,3,17,12,15,42,1
11:07:20:395908,-5,2,4,10,0,-5,-26,-8
11:07:20:403658,-5,2,4,10,0,-5,-26,-8
11:07:20:410584,-9,-7,-6,-9,-6,13,4,-1
11:07:20:418843,11,-8,1,8,-6,3,28,28
11:07:20:419654,11,-8,1,8,-6,3,28,28
11:07:20:425660,6,3,-1,-9,0,-2,-7,0
11:07:20:441299,-24,-10,-8,-8,-6,-1,-24,-4
11:07:20:442380,-24,-10,-8,-8,-6,-1,-24,-4
11:07:20:448137,9,1,-4,-7,-7,-10,5,11
11:07:20:455640,-24,4,-2,13,12,18,-36,-9
11:07:20:463100,-24,4,-2,13,12,18,-36,-9
11:07:20:470685,10,2,-2,-4,-7,15,-19,2
11:07:20:478893,-4,2,-2,1,1,0,39,2
11:07:20:479592,-4,2,-2,1,1,0,39,2
11:07:20:485679,10,0,-2,7,-2,-18,-9,-1
11:07:20:501339,6,-4,-3,-12,-5,-2,-12,0
11:07:20:502255,6,-4,-3,-12,-5,-2,-12,0
11:07:20:508151,-9,-3,-13,-37,-7,-13,-1,-1
11:07:20:515604,1,3,3,10,-2,2,-20,-9
11:07:20:523219,1,3,3,10,-2,2,-20,-9
11:07:20:530754,-1,3,10,46,2,1,-1,-1
11:07:20:538923,16,0,-3,-5,2,-3,14,-4
11:07:20:539732,16,0,-3,-5,2,-3,14,-4
11:07:20:545745,-20,0,-7,-10,4,11,-36,-13
11:07:20:561398,-6,-1,5,-9,-5,4,-8,4
11:07:20:562100,-6,-1,5,-9,-5,4,-8,4
11:07:20:568256,1,2,8,24,3,-5,-20,-1
11:07:20:575920,-10,-2,-6,-45,-7,10,17,1
11:07:20:583219,-10,-2,-6,-45,-7,10,17,1
11:07:20:590668,-17,-1,-8,-20,0,-9,12,2
11:07:20:599205,10,3,-6,-5,-4,-2,6,-6
11:07:20:599571,10,3,-6,-5,-4,-2,6,-6
11:07:20:605721,-19,-10,-5,-11,3,14,8,0
11:07:20:621244,12,1,6,28,-4,-3,2,9
11:07:20:622244,12,1,6,28,-4,-3,2,9
11:07:20:628234,19,-3,-14,-9,7,-7,-15,1
11:07:20:635749,-5,-1,4,21,-2,6,5,-5
11:07:20:643229,-5,-1,4,21,-2,6,5,-5
11:07:20:651034,6,2,11,16,-8,-14,-8,-14
11:07:20:658902,-11,1,0,12,1,-7,-17,2
11:07:20:671793,-11,1,0,12,1,-7,-17,2
11:07:20:671891,7,-2,3,-5,-10,1,5,1
11:07:20:681226,18,6,3,6,9,0,22,21
11:07:20:682086,18,6,3,6,9,0,22,21
11:07:20:688067,-7,-2,-4,-14,0,10,11,7
11:07:20:695764,0,-3,-3,2,-14,-12,3,-11
11:07:20:703082,0,-3,-3,2,-14,-12,3,-11
11:07:20:710670,6,1,6,25,-1,12,-26,-6
11:07:20:718849,19,-1,-7,-12,24,4,-18,1
11:07:20:719639,19,-1,-7,-12,24,4,-18,1
11:07:20:725691,-19,-2,7,18,-5,-2,-11,-12
11:07:20:741271,-2,2,0,7,-4,-8,-22,-5
11:07:20:742370,-2,2,0,7,-4,-8,-22,-5
11:07:20:748189,-5,-2,1,-17,-3,1,9,-1
11:07:20:755584,1,3,0,2,-6,-12,8,5
11:07:20:763576,1,3,0,2,-6,-12,8,5
11:07:20:770636,29,0,-2,-9,1,-6,33,13
11:07:20:779204,-9,-7,0,1,-7,6,27,5
11:07:20:779673,-9,-7,0,1,-7,6,27,5
11:07:20:785577,-1,2,-13,-40,4,-4,12,-2
11:07:20:801314,17,5,-4,1,-3,-3,4,-2
11:07:20:802234,17,5,-4,1,-3,-3,4,-2
11:07:20:808184,-11,-5,-8,-8,2,-1,4,10
11:07:20:815607,-7,0,4,-3,-1,-6,-35,-10
11:07:20:823266,-7,0,4,-3,-1,-6,-35,-10
11:07:20:830740,4,-1,3,8,-3,-9,-22,-2
11:07:20:838932,-45,-10,-4,4,-6,-3,-11,-11
11:07:20:839752,-45,-10,-4,4,-6,-3,-11,-11
11:07:20:845735,-9,-2,3,10,-2,-1,-6,-13
11:07:20:861365,-1,1,-2,-27,2,2,-2,-1
11:07:20:862234,-1,1,-2,-27,2,2,-2,-1
11:07:20:868179,-10,-3,-6,4,11,7,16,-4
11:07:20:883735,-5,2,8,22,-13,6,-31,-8
11:07:20:885128,-5,2,8,22,-13,6,-31,-8
11:07:20:890579,15,7,6,8,8,-7,-7,4
11:07:20:899023,2,-3,-3,-8,1,14,16,6
11:07:20:899778,2,-3,-3,-8,1,14,16,6
11:07:20:905692,0,2,3,15,-6,5,1,-5
11:07:20:921376,-25,-8,0,14,10,-2,9,3
11:07:20:922329,-25,-8,0,14,10,-2,9,3
11:07:20:928284,-7,5,-7,-7,-9,-10,7,-9
11:07:20:935532,8,3,-7,-22,-7,-4,6,0
11:07:20:943241,8,3,-7,-22,-7,-4,6,0
11:07:20:950697,-4,-5,-6,-29,7,-5,25,0
11:07:20:958922,30,1,1,6,-9,-2,-31,-6
11:07:20:959738,30,1,1,6,-9,-2,-31,-6
11:07:20:965566,-11,1,10,29,6,8,-26,-12
11:07:20:981256,-9,-2,5,9,0,0,7,-9
11:07:20:982074,-9,-2,5,9,0,0,7,-9
11:07:20:988199,12,1,-4,-8,-8,-3,5,4
11:07:20:995574,8,4,-1,-3,-1,-9,-10,-3
11:07:21:3435,8,4,-1,-3,-1,-9,-10,-3
11:07:21:10721,-27,-8,-2,-5,-7,-11,-3,3
11:07:21:18817,18,0,-4,-6,11,9,-4,-10
11:07:21:19537,18,0,-4,-6,11,9,-4,-10
11:07:21:25630,16,-4,7,-2,-3,-8,-3,8
11:07:21:41297,-10,-3,-17,-30,-1,-11,17,-2
11:07:21:42194,-10,-3,-17,-30,-1,-11,17,-2
11:07:21:48219,-15,0,2,10,4,43,49,6
11:07:21:55591,-8,-5,3,12,3,-5,0,-2
11:07:21:63068,-8,-5,3,12,3,-5,0,-2
11:07:21:70523,0,5,-2,-4,-4,-8,-6,-5
11:07:21:78816,-8,-5,-10,-2,-3,9,5,9
11:07:21:79627,-8,-5,-10,-2,-3,9,5,9
11:07:21:85567,-9,-4,2,8,-2,3,14,0
11:07:21:101231,-20,1,1,8,-2,-9,-28,-13
11:07:21:102311,-20,1,1,8,-2,-9,-28,-13
11:07:21:108259,5,-1,-6,-17,-14,2,23,-3
11:07:21:115769,-4,1,2,7,6,11,9,-1
11:07:21:123155,-4,1,2,7,6,11,9,-1
11:07:21:131020,-1,-2,-1,5,-2,-18,-62,2
11:07:21:138999,-3,-4,0,-19,-5,-2,11,14
11:07:21:139722,-3,-4,0,-19,-5,-2,11,14
11:07:21:145928,13,2,-3,-7,11,-1,-19,-6
11:07:21:161214,13,3,-6,-15,-3,-3,21,6
11:07:21:162465,13,3,-6,-15,-3,-3,21,6
11:07:21:168088,6,-3,-2,4,-1,-5,-15,-8
11:07:21:175749,11,2,3,4,-8,-14,10,-1
11:07:21:183111,11,2,3,4,-8,-14,10,-1
11:07:21:190537,-1,-2,4,29,0,3,11,-1
11:07:21:198764,-5,-3,-5,0,7,-5,-9,2
11:07:21:199548,-5,-3,-5,0,7,-5,-9,2
11:07:21:205509,0,1,-1,-11,0,-4,13,4
11:07:21:221676,-3,-7,1,4,3,4,13,-13
11:07:21:222212,-3,-7,1,4,3,4,13,-13
11:07:21:228226,-45,-3,0,-4,-9,-9,-62,-9
11:07:21:243811,6,1,-5,-22,1,6,-18,-9
11:07:21:244734,6,1,-5,-22,1,6,-18,-9
11:07:21:250660,20,-1,-1,4,-7,-7,-22,4
11:07:21:258950,-10,-4,4,25,3,29,30,10
11:07:21:259752,-10,-4,4,25,3,29,30,10
11:07:21:273523,12,4,0,-5,-1,-6,-9,3
11:07:21:281265,11,0,8,19,-6,-7,7,3
11:07:21:282107,11,0,8,19,-6,-7,7,3
11:07:21:288110,8,1,-10,-30,2,-8,21,-3
